k,PSNR,SSIM,mse,Log-Gradient,Angle
0.0,20.229860694117306,0.40191505161090957,0.0,10.942727552152892,0.5986436715566542
1.0,20.23300691551283,0.402065923897817,0.010250077800118652,10.94230212376581,0.6002543068251736
2.0,20.236701577609907,0.4022448421340917,0.01221423880372373,10.941805724105263,0.6002890181987152
3.0,20.240420725282423,0.40242514169588867,0.012329553697669648,10.941306169164372,0.6003132649250236
4.0,20.244141717089757,0.4026055944266356,0.012338651727919987,10.940806343826875,0.600331922512399
5.0,20.2478626945722,0.40278609284142447,0.012336300272120102,10.940306492125998,0.6003481395733963
6.0,20.251583396063822,0.4029666208687854,0.012331881280031638,10.939806651141842,0.6003655391556156
7.0,20.255303762603262,0.40314717458754346,0.012326858579002783,10.93930683040947,0.6003776802969314
8.0,20.25902377517923,0.4033277526988228,0.012321615085590822,10.93880703288248,0.6003896325264336
9.0,20.262743427791232,0.4035083546841094,0.012316279243039557,10.93830725985755,0.6004014345008697
10.0,20.26646271719762,0.4036889801925858,0.012310899022572118,10.937807512092817,0.6004128687783717
11.0,20.270181642076043,0.4038696290966346,0.012305494077295314,10.937307790031241,0.6004242544095072
12.0,20.27390020160379,0.4040503013041082,0.012300066979271416,10.936808094001748,0.6004356132555171
13.0,20.277618395112444,0.40423099671815493,0.012294626017491877,10.936308424278106,0.6004468300334422
14.0,20.28133622188198,0.40441171523278846,0.01228917505884082,10.93580878108655,0.6004579792267043
15.0,20.285053681437454,0.40459245676646227,0.012283712630802319,10.935309164623751,0.6004690690880454
16.0,20.28877077329338,0.40477322125142906,0.01227824882052093,10.934809575015924,0.600480112482294
17.0,20.292487496969382,0.40495400862041064,0.012272783527348698,10.934310012379237,0.6004911734372906
18.0,20.296203851968052,0.40513481880920005,0.012267312686173861,10.933810476831761,0.6005022711815039
19.0,20.299919837826717,0.4053156517528118,0.01226184190016414,10.933310968462028,0.600513341161674
20.0,20.303635454085033,0.40549650738492,0.012256371501685308,10.932811487355387,0.6005245454068803
21.0,20.30735070028414,0.4056773856393094,0.012250900273393945,10.93231203360681,0.6005357668272048
22.0,20.311065575966268,0.4058582864498481,0.012245429592587093,10.931812607304185,0.600546916050435
23.0,20.314780080674453,0.4060392097504549,0.012239959944748423,10.93131320852462,0.6005581443424691
24.0,20.318494213952313,0.4062201554750738,0.012234491712064973,10.930813837347008,0.6005694086662668
25.0,20.322207975339328,0.4064011235575508,0.01222902478598885,10.930314493851741,0.6005806818166625
26.0,20.325921364367687,0.406582113931558,0.012223558525654312,10.929815178120588,0.6005919117916159
27.0,20.329634380582583,0.40676312653104924,0.01221809240436602,10.929315890232509,0.6006031464816254
28.0,20.333347023529385,0.40694416128996275,0.012212627697281701,10.928816630265176,0.6006143612996121
29.0,20.337059292753583,0.4071252181422192,0.012207164518505259,10.92831739829577,0.6006255389642664
30.0,20.340771187800772,0.4073062970217122,0.012201702874161955,10.927818194401278,0.6006367807774117
31.0,20.344482708216592,0.40748739786229926,0.012196242768768205,10.927319018658531,0.6006480248349014
32.0,20.348193853546732,0.40766852059781505,0.012190784036638576,10.926819871140001,0.6006592340825637
33.0,20.351904623336893,0.4078496651620573,0.012185326785335633,10.926320751920986,0.600670476485491
34.0,20.355615017126468,0.4080308314881084,0.012179870574103621,10.925821661082637,0.600681692502267
35.0,20.359325034448943,0.4082120195088182,0.012174415027396437,10.92532259870458,0.6006930303741005
36.0,20.363034674850486,0.408393229157912,0.012168960616843054,10.9248235648653,0.6007044490791427
37.0,20.36674393787724,0.4085744603690744,0.012163507452135932,10.924324559644244,0.6007157819424417
38.0,20.370452823075347,0.4087557130759547,0.01215805558608556,10.92382558311808,0.6007270650581777
39.0,20.37416132999092,0.40893698721216626,0.012152604939619149,10.92332663536363,0.6007384368352587
40.0,20.37786945817006,0.40911828271128153,0.012147155790073895,10.922827716457029,0.6007497970860397
41.0,20.381577207158816,0.4092995995068369,0.012141708138576818,10.922328826474414,0.600761121010169
42.0,20.38528457650322,0.4094809375323267,0.012136261986093978,10.921829965491922,0.6007723608136172
43.0,20.388991565749286,0.4096622967212101,0.012130817333458204,10.921331133585687,0.6007835055625659
44.0,20.39269817444296,0.40984367700690544,0.01212537418139241,10.920832330831857,0.6007945272540863
45.0,20.396404402130173,0.41002507832279206,0.01211993253052883,10.920333557306584,0.6008053999193764
46.0,20.40011024835682,0.41020650060220903,0.012114492381425186,10.919834813086032,0.600816279709189
47.0,20.40381571266874,0.41038794377846566,0.012109053734577995,10.91933609824638,0.6008270119571186
48.0,20.407520794611766,0.4105694077848156,0.012103616590434008,10.918837412863818,0.6008375908971931
49.0,20.411225493731664,0.4107508925544838,0.012098180949399422,10.918338757014551,0.600848077956493
50.0,20.414929809574154,0.41093239802065756,0.01209274681184811,10.917840130774806,0.6008585204331974
51.0,20.41863374168495,0.411113924116483,0.012087314178127962,10.91734153422082,0.6008700796509118
52.0,20.42233728960969,0.4112954707750598,0.012081883048566942,10.916842967428854,0.6008816064801735
53.0,20.426040452893997,0.41147703792946405,0.012076453423477558,10.916344430475187,0.6008929478481485
54.0,20.429743231083446,0.4116586255127217,0.012071025303161122,10.915845923436116,0.6009041842891817
55.0,20.433445623723312,0.4118402334577674,0.012065598685226045,10.915347446387957,0.6009153813982152
56.0,20.437147630346445,0.4120218616948161,0.012060173434933048,10.914848999407017,0.60092658770659
57.0,20.44084925049844,0.41220351015681206,0.012054749686298803,10.914350582569583,0.6009377094569778
58.0,20.444550483724896,0.41238517877665687,0.012049327259497606,10.91385219595057,0.6009488917594253
59.0,20.44825132957135,0.4125668674872161,0.012043906339898611,10.913353839626351,0.6009601406749163
60.0,20.451951787583287,0.4127485762213163,0.012038486928009733,10.91285551367332,0.6009713087996368
61.0,20.455651857306165,0.41293030491174704,0.012033069024339581,10.912357218167891,0.6009824088446358
62.0,20.459351538285418,0.41311205349125696,0.012027652629397895,10.911858953186503,0.6009933554489598
63.0,20.463050830066408,0.4132938218925643,0.012022237743696665,10.911360718805613,0.6010042984732707
64.0,20.466749732194476,0.4134756100483397,0.012016824367750674,10.910862515101703,0.601015387723865
65.0,20.47044824421493,0.4136574178912223,0.012011412502077858,10.91036434215128,0.6010265838277303
66.0,20.47414636567303,0.413839245353808,0.012006002147199686,10.909866200030867,0.6010378236452422
67.0,20.477844096113987,0.41402109236866513,0.01200059330364124,10.909368088817015,0.6010492301929915
68.0,20.481541435083003,0.41420295886831476,0.011995185971931397,10.908870008586293,0.6010608919838674
69.0,20.485238382125207,0.4143848447852428,0.011989780152602611,10.908371959415295,0.6010725655096868
70.0,20.488934936785718,0.4145667500519053,0.011984375846190838,10.90787394138064,0.60108407134831
71.0,20.4926310986096,0.41474867460070963,0.011978973053235278,10.907375954558962,0.6010950221492534
72.0,20.496326867141885,0.4149306183640323,0.011973571774278033,10.906877999026923,0.6011073871554069
73.0,20.500022241927564,0.4151125812742133,0.011968172009863791,10.906380074861207,0.6011203514659569
74.0,20.5037172225116,0.41529456326355413,0.011962773760539402,10.905882182138523,0.6011319756517869
75.0,20.50741180843891,0.41547656426431684,0.01195737702685338,10.905384320935594,0.6011438388816205
76.0,20.511105999254347,0.41565858420873325,0.011951981808853603,10.904886491329162,0.6011561820515062
77.0,20.51479979450064,0.4158406230289719,0.011946588045583023,10.90438869339453,0.6011689896068574
78.0,20.518493193722627,0.4160226806571881,0.01194119579770757,10.903890927208463,0.6011820622145893
79.0,20.522186196465103,0.41620475702550525,0.011935805065770692,10.903393192847744,0.6011940573994449
80.0,20.525878802272835,0.41638685206599885,0.011930415850314752,10.90289549038918,0.6012046597974117
81.0,20.529571010690546,0.4165689657107223,0.011925028151881102,10.902397819909602,0.6012152427420835
82.0,20.53326282126293,0.41675109789168285,0.01191964197100994,10.901900181485857,0.60122686481781
83.0,20.536954233534654,0.4169332485408626,0.01191425730824009,10.901402575194822,0.601238586184894
84.0,20.54064524705034,0.4171154175901906,0.011908874164108666,10.900905001113392,0.6012498271722276
85.0,20.54433586135458,0.41729760497157803,0.01190349253915041,10.900407459318487,0.6012607991945297
86.0,20.548026075991935,0.41747981061689265,0.011898112433897256,10.899909949887046,0.6012714506576035
87.0,20.551715890506937,0.4176620344579667,0.011892733848877832,10.899412472896033,0.6012817640779672
88.0,20.555405304444072,0.417844276426594,0.01188735678461659,10.898915028422437,0.6012917075840859
89.0,20.559094317347807,0.41802653645454096,0.011881981241633359,10.89841761654326,0.6013034200094087
90.0,20.562782928762573,0.41820881447352926,0.011876607220442531,10.897920237335535,0.6013145837803294
91.0,20.566471138232775,0.418391110415256,0.011871234721552458,10.897422890876316,0.6013247119737205
92.0,20.570158945302765,0.41857342421137617,0.011865863745464764,10.896925577242676,0.6013351351334385
93.0,20.573846349516888,0.41875575579351,0.011860494292673633,10.896428296511713,0.6013464360543155
94.0,20.57753335041945,0.41893810509325063,0.011855126363665092,10.895931048760545,0.6013576883694229
95.0,20.58121994755473,0.4191204720421429,0.011849759958916361,10.895433834066315,0.6013685380568393
96.0,20.58490614046697,0.4193028565717134,0.011844395078895231,10.894936652506185,0.6013791332294298
97.0,20.588591928700378,0.4194852586134396,0.011839031724059312,10.894439504157342,0.6013894187320711
98.0,20.592277311799144,0.4196676780987751,0.011833669894855375,10.893942389096992,0.6013994488807544
99.0,20.59596228930743,0.4198501149591381,0.011828309591718891,10.893445307402366,0.6014092324214945
100.0,20.59964686076935,0.42003256912591097,0.01182295081507311,10.892948259150716,0.6014188540421305
101.0,20.603331025729027,0.42021504053043496,0.011817593565328702,10.892451244419314,0.6014288812236153
102.0,20.607014783730506,0.42039752910402656,0.011812237842883143,10.89195426328546,0.6014392619325674
103.0,20.61069813431785,0.42058003477797556,0.011806883648120003,10.891457315826466,0.6014504182070066
104.0,20.614381077034004,0.42076255748341795,0.011801530946371938,10.890960402116738,0.6014615519041279
105.0,20.61806361142243,0.42094509715152273,0.011796179750869832,10.890463522232047,0.6014726466718924
106.0,20.621745737027123,0.4211276537134753,0.011790830080528312,10.889966676249792,0.6014835337797061
107.0,20.62542745339205,0.42131022710042615,0.011785481935752674,10.889469864247406,0.6014941334302374
108.0,20.62910876006118,0.4214928172434982,0.011780135316935758,10.888973086302338,0.6015044221962832
109.0,20.632789656578424,0.42167542407378455,0.011774790224457326,10.88847634249206,0.6015146021905661
110.0,20.636470142487703,0.42185804752233613,0.011769446658683803,10.887979632894071,0.6015247642536143
111.0,20.640150217332895,0.4220406875201827,0.011764104614875417,10.887482957585895,0.6015349120700285
112.0,20.64382988065601,0.4222233439981304,0.011758764072370252,10.886986316641996,0.6015450916239301
113.0,20.64750913200044,0.4224060168871066,0.011753425044425248,10.886489710139196,0.6015551870467318
114.0,20.651187970910023,0.4225887061180332,0.01174808753607372,10.885993138155099,0.6015652303709033
115.0,20.654866396928572,0.4227714116218139,0.011742751547698155,10.885496600767334,0.6015746666836091
116.0,20.658544409599877,0.4229541333293109,0.011737417079672031,10.885000098053553,0.6015839254128728
117.0,20.662222008467715,0.42313687117136034,0.011732084132359235,10.884503630091432,0.6015947156798314
118.0,20.665899193075845,0.4233196250787689,0.011726752706113576,10.884007196958665,0.6016038578395201
119.0,20.669575962967997,0.42350239498230574,0.011721422801278504,10.883510798732976,0.601612586324959
120.0,20.673252317687897,0.42368518081271533,0.011716094392384973,10.88301443549153,0.6016233140372541
121.0,20.67692825677925,0.4238679825007085,0.01171076749717453,10.882518107311896,0.6016336952285211
122.0,20.680603779785727,0.42405079997696254,0.011705442124917049,10.882021814271868,0.6016436896861367
123.0,20.684278886251008,0.42423363317213286,0.011700118275920032,10.881525556449258,0.6016534807470272
124.0,20.687953575718737,0.4244164820168323,0.011694795950477583,10.881029333921907,0.601663115969182
125.0,20.691627847732544,0.4245993464416551,0.011689475148870178,10.880533146767675,0.6016726019263069
126.0,20.695301701836048,0.42478222637715185,0.011684155871364125,10.880036995064442,0.6016821689314445
127.0,20.698975137572862,0.42496512175386125,0.011678838118211464,10.879540878890117,0.6016918829541088
128.0,20.702648154486557,0.4251480325022741,0.01167352188964953,10.879044798322624,0.6017016611541232
129.0,20.706320752120703,0.4253309585528608,0.011668207185900671,10.878548753439917,0.601711333635142
130.0,20.70999293001887,0.42551389983605953,0.011662894007172011,10.878052744319968,0.6017208116451861
131.0,20.713664687724595,0.4256968562822796,0.011657582353655173,10.877556771040771,0.601729948571401
132.0,20.7173360247814,0.42587982782189476,0.011652272225526063,10.877060833680343,0.6017389823374436
133.0,20.721006940732806,0.4260628143852632,0.011646963622944631,10.876564932316723,0.6017488735850901
134.0,20.724677435122317,0.4262458159026982,0.011641656545564918,10.87606906702797,0.6017597653920281
135.0,20.72834750749342,0.42642883230449397,0.011636350992104954,10.875573237892143,0.601770288707603
136.0,20.732017157388828,0.42661186352080244,0.011631046928217212,10.875077444985983,0.6017807306089308
137.0,20.73568638435176,0.4267949094818235,0.011625744375002616,10.874581688387101,0.60179116613213
138.0,20.739355187925682,0.42697797011776367,0.011620443345638208,10.874085968173636,0.6018014297430637
139.0,20.743023567654085,0.427161045358812,0.011615143840267687,10.873590284423754,0.6018116306335398
140.0,20.74669152308043,0.4273441351351115,0.011609845859018739,10.87309463721564,0.6018210862396827
141.0,20.750359053748166,0.42752723937678844,0.011604549402003022,10.872599026627501,0.601833178410472
142.0,20.75402615920076,0.42771035801393825,0.011599254469316058,10.872103452737568,0.6018436110517751
143.0,20.757692838980656,0.4278934909765322,0.011593961037902384,10.871607915622565,0.6018539520981011
144.0,20.7613590926307,0.42807663819455577,0.011588669116320763,10.871112415359828,0.6018639901654125
145.0,20.76502491969435,0.42825979959802174,0.011583378718986969,10.870616952027667,0.60187354481104
146.0,20.768690319715027,0.4284429751169143,0.01157808984597201,10.870121525704421,0.6018828358363556
147.0,20.77235529223617,0.42862616468119596,0.011572802497329959,10.869626136468442,0.6018924164845746
148.0,20.7760198368012,0.4288093682207939,0.01156751667309783,10.869130784398111,0.6019024462544501
149.0,20.779683952953537,0.4289925856656125,0.011562232373295749,10.868635469571831,0.6019127909163001
150.0,20.783347640236585,0.4291758169455264,0.01155694959595717,10.868140192068049,0.6019229671836385
151.0,20.78701089819376,0.42935906199038576,0.011551668339765328,10.867644951965248,0.6019331012009806
152.0,20.79067372636846,0.4295423207300089,0.011546388604701932,10.867149749341937,0.6019434835041028
153.0,20.794336124304085,0.42972559309419517,0.01154111039073419,10.866654584276645,0.6019535484587308
154.0,20.797998091544034,0.42990887901270386,0.011535833697815063,10.866159456847923,0.6019618142786834
155.0,20.801659627631693,0.4300921784152825,0.011530558525883043,10.865664367134343,0.6019723027160249
156.0,20.805320732110456,0.43027549123163805,0.011525284874862284,10.865169315214498,0.6019821687670154
157.0,20.80898140452371,0.430458817391466,0.011520012744662677,10.864674301167005,0.6019917222460467
158.0,20.81264164441484,0.4306421568244197,0.011514742120517618,10.864179325070351,0.6020012770323927
159.0,20.816301451327245,0.4308255094601367,0.011509472989049625,10.863684387002854,0.6020108166943609
160.0,20.819960824804298,0.4310088752282238,0.011504205348030868,10.86318948704252,0.6020202671891125
161.0,20.82361976438939,0.431192254058266,0.011498939226103616,10.862694625268054,0.6020295652186344
162.0,20.82727826962592,0.4313756458798148,0.01149367462314417,10.862199801758173,0.6020386167567107
163.0,20.83093634005727,0.43155905062240524,0.011488411539016426,10.861705016591623,0.602047481085247
164.0,20.834593975226827,0.43174246821553863,0.011483149973571811,10.861210269847167,0.6020564218328314
165.0,20.838251174678003,0.43192589858869584,0.011477889926649259,10.860715561603593,0.6020656590007923
166.0,20.841907937954186,0.4321093416713313,0.011472631398075452,10.860220891939708,0.6020750672035474
167.0,20.845564264598792,0.43229279739287413,0.011467374387664825,10.859726260934341,0.6020845842462614
168.0,20.84922015415522,0.4324762656827277,0.011462118895219885,10.859231668666345,0.6020940147761505
169.0,20.852875606166887,0.43265974647027045,0.011456864920531497,10.858737115214593,0.6021034793035394
170.0,20.856530620174212,0.432843239684438,0.01145161241325948,10.858242600656979,0.6021127780250711
171.0,20.860185195716404,0.4330267452539774,0.011446361327658743,10.857748125070072,0.6021218008890162
172.0,20.863839332337022,0.4332102631082031,0.011441111753974177,10.8572536885328,0.6021307687916834
173.0,20.867493029579602,0.43339379317640203,0.011435863692145663,10.856759291124108,0.602140584584671
174.0,20.871146286987706,0.433577335387843,0.011430617142111299,10.856264932922967,0.6021505301990058
175.0,20.874799104104902,0.4337608896717673,0.011425372103807131,10.855770614008373,0.6021603284074697
176.0,20.878451480474787,0.43394445595739445,0.011420128557455417,10.855276334459106,0.602170261040942
177.0,20.882103415640962,0.43412803417392015,0.011414886488420676,10.854782094353837,0.6021800961024636
178.0,20.88575490914705,0.4343116242505192,0.01140964592592572,10.854287893771629,0.6021897875993457
179.0,20.889405960536678,0.43449522611633773,0.01140440687003569,10.853793732791566,0.6021993481273146
180.0,20.89305656935351,0.434678839700505,0.011399169320245813,10.853299611492755,0.6022091685009517
181.0,20.89670673514121,0.4348624649321233,0.011393933274298867,10.852805529954331,0.6022189725719157
182.0,20.900356457443465,0.43504610174027486,0.01138869873230156,10.852311488255454,0.6022288175475099
183.0,20.904005735803977,0.43522975005401726,0.011383465694365016,10.851817486475305,0.60223878406887
184.0,20.90765456976647,0.435413409802386,0.011378234160604423,10.851323524693083,0.6022487791633663
185.0,20.911302958874693,0.43559708091439386,0.011373004116839443,10.850829602987483,0.6022586466748668
186.0,20.914950902672405,0.4357807633190349,0.01136777556688618,10.85033572143736,0.6022681980258074
187.0,20.91859840070338,0.435964456945276,0.011362548499502634,10.849841880121728,0.6022773808568506
188.0,20.922245452511426,0.4361481617220682,0.011357322935216636,10.849348079119872,0.6022861353731822
189.0,20.925892057640375,0.4363318775783316,0.011352098876664489,10.848854318511135,0.6022944282275994
190.0,20.929538215634057,0.43651560444297255,0.011346876324016337,10.848360598374876,0.602302474768532
191.0,20.93318392603635,0.4366993422448752,0.011341655277443212,10.847866918790483,0.6023103821736853
192.0,20.93682918839114,0.43688309091289707,0.01133643573711686,10.847373279837363,0.6023182652769729
193.0,20.940474002242336,0.43706685037588017,0.011331217703209464,10.846879681594945,0.6023265132955552
