k,PSNR,SSIM,mse,Log-Gradient,Angle
0.0,20.229860694117306,0.40191505161090957,0.0,10.942727552152892,0.5986436715566542
1.0,20.233007430311027,0.40206594858663286,0.010251754750186921,10.942302054152057,0.6002543085850336
2.0,20.236703211934397,0.40224492081118485,0.012217892457203625,10.94180550361357,0.6002890208012269
3.0,20.240424088102053,0.402425303912154,0.012335216980204755,10.941305715969046,0.6003132721050504
4.0,20.244147417878406,0.4026058697816617,0.012346330436829174,10.940805576017723,0.6003319352681965
5.0,20.247871343008555,0.40278651096609625,0.01234599459571199,10.940305327748016,0.6003481622540406
6.0,20.251595601989454,0.40296721142268005,0.012343590246679517,10.939805008201253,0.6003655728196401
7.0,20.25532013601284,0.403147967258267,0.012340580924925381,10.93930462687536,0.6003777301272135
8.0,20.25904492621711,0.40332877720175603,0.012337349443268133,10.93880418668735,0.6003896933709328
9.0,20.262769966750184,0.40350964076229884,0.012334024198282818,10.938303688897584,0.6004015120292582
10.0,20.266495254517967,0.40369055761664424,0.01233065313713923,10.937803134228043,0.6004129656881502
11.0,20.27022078834509,0.40387152766468937,0.012327255903545461,10.93730252308566,0.6004243687773737
12.0,20.27394656755539,0.40405255084175096,0.012323835068143782,10.936801855763436,0.6004357493866466
13.0,20.27767259162658,0.40423362707839,0.012320398913610546,10.936301132499281,0.6004469893585205
14.0,20.281398859984318,0.40441475629598783,0.012316951304211466,10.935800353483657,0.6004581643122375
15.0,20.285125372298893,0.4045959384403097,0.012313490768607082,10.935299518877532,0.600469282318333
16.0,20.28885212822969,0.40477717347087877,0.012310027384125689,10.934798628771482,0.6004803535539062
17.0,20.292579127440774,0.4049584613476358,0.012306561052125511,10.934297683246074,0.6004914490788541
18.0,20.296306369578808,0.4051398020335537,0.0123030877116697,10.93379668238384,0.6005025784274652
19.0,20.300033854324727,0.4053211954907783,0.012299612957468193,10.93329562623783,0.6005136859427314
20.0,20.303761581361446,0.40550264168006805,0.012296137123176915,10.93279451485796,0.6005249315521958
21.0,20.30748955037293,0.4056841405622526,0.01229265899358463,10.932293348303787,0.6005361896899495
22.0,20.31121776104385,0.4058656920981931,0.012289179940770981,10.931792126627878,0.6005473789974165
23.0,20.314946213059258,0.40604729624875624,0.012285700452000845,10.931290849872045,0.6005586522508076
24.0,20.3186749061044,0.40622895297478906,0.012282220908370499,10.930789518079937,0.6005699618892159
25.0,20.322403839859994,0.4064106622369948,0.012278741203085086,10.930288131296738,0.600581279751787
26.0,20.32613301399902,0.4065924239958487,0.01227526069494363,10.92978668956907,0.6005925600263854
27.0,20.329862428207058,0.40677423821207387,0.012271778858286269,10.92928519294079,0.6006038390350197
28.0,20.333592082169485,0.4069561048463215,0.012268296964830385,10.928783641454517,0.6006151064575318
29.0,20.337321975571363,0.407138023859183,0.012264815129577972,10.928282035152424,0.6006263393102395
30.0,20.341052108097468,0.4073199952111661,0.012261333358652213,10.927780374076539,0.6006376360503536
31.0,20.344782479432205,0.40750201886271253,0.012257851656568966,10.927278658268785,0.6006489388052638
32.0,20.348513089259615,0.4076840947741784,0.012254369858186072,10.926776887766758,0.6006602064523622
33.0,20.352243937263342,0.4078662229058397,0.012250888071026844,10.926275062610951,0.6006715094489633
34.0,20.355975023120333,0.40804840321722,0.012247405856911201,10.925773182847738,0.6006827905296763
35.0,20.35970634650118,0.4082306356675464,0.012243922839498086,10.925271248522037,0.6006942161036088
36.0,20.36343790708873,0.4084129202168774,0.012240439490365298,10.924769259677628,0.6007056965284164
37.0,20.367169704565434,0.40859525682519005,0.012236955915889285,10.92426721635937,0.6007170893149676
38.0,20.3709017386133,0.40877764545237244,0.01223347217571473,10.923765118609342,0.6007284426678342
39.0,20.3746340089139,0.4089600860582256,0.012229988180790036,10.923262966469856,0.6007398986979627
40.0,20.378366515148368,0.40914257860246894,0.01222650421275004,10.922760759982573,0.6007513244364365
41.0,20.38209925699739,0.4093251230447301,0.012223020272724818,10.922258499189207,0.6007627208165851
42.0,20.3858322341412,0.40950771934455216,0.012219536361683258,10.921756184131517,0.6007740253832504
43.0,20.38956544625958,0.40969036746138693,0.012216052480460982,10.921253814851314,0.6007852362470458
44.0,20.39329889303187,0.4098730673545992,0.012212568629783406,10.920751391390468,0.6007963107061755
45.0,20.397032574136936,0.41005581898347215,0.012209084810285044,10.920248913790905,0.6008072684027385
46.0,20.4007664892532,0.4102386223071885,0.012205601022525605,10.919746382094614,0.6008182040329452
47.0,20.40450063805862,0.41042147728485595,0.012202117267003437,10.919243796343643,0.6008289921686791
48.0,20.408235020230684,0.41060438387548065,0.012198633544166572,10.91874115658011,0.6008396292487767
49.0,20.41196963544643,0.41078734203798956,0.012195149854422474,10.918238462846194,0.6008501926792903
50.0,20.41570448338242,0.41097035173121504,0.01219166619814566,10.917735715184142,0.6008609389067991
51.0,20.419439563714764,0.4111534129139034,0.01218818257568459,10.91723291363627,0.6008726132608089
52.0,20.423174876119102,0.4113365255447117,0.012184698987367227,10.916730058244962,0.6008842131777095
53.0,20.4269104202706,0.4115196895822048,0.012181215433505803,10.916227149052673,0.600895609921755
54.0,20.43064619584397,0.41170290498485795,0.012177731914401033,10.915724186101931,0.6009069392744207
55.0,20.4343822025132,0.4118861717110142,0.01217424842782901,10.91522116943533,0.6009182423349432
56.0,20.438118439939398,0.41206948971623003,0.012170764839824346,10.914718099095499,0.6009295404004765
57.0,20.441854907796024,0.4122528589587424,0.012167281287720056,10.914214975125143,0.6009407712565104
58.0,20.44559160575606,0.4124362793967,0.0121637975848913,10.91371179756558,0.600952097571304
59.0,20.44932853349204,0.41261975098816284,0.012160313918647475,10.913208566459668,0.600963449373657
60.0,20.45306569067599,0.4128032736910983,0.012156830290086225,10.91270528185033,0.6009747018888013
61.0,20.45680307697951,0.41298684746338665,0.01215334669971231,10.912201943780575,0.6009858730068455
62.0,20.460540692073682,0.4131704722628149,0.012149863148031459,10.91169855229348,0.6009969272686382
63.0,20.46427853562914,0.41335414804708565,0.01214637963555098,10.911195107432198,0.6010079863981862
64.0,20.468016607316045,0.4135378747738123,0.01214289616278076,10.910691609239953,0.6010192884810821
65.0,20.471754906804076,0.4137216524005119,0.01213941273023327,10.91018805776005,0.6010306206549488
66.0,20.475493433762427,0.4139054808846132,0.012135929338424088,10.909684453035869,0.6010419797388491
67.0,20.47923218785984,0.4140893601834612,0.012132445987872179,10.909180795110858,0.6010536862596892
68.0,20.482971168764557,0.4142732902543033,0.012128962679099544,10.908677084028549,0.601065517314787
69.0,20.48671037614437,0.4144572710543049,0.012125479412631526,10.908173319832542,0.6010772836438063
70.0,20.49044980966656,0.41464130254053094,0.01212199618899638,10.90766950256652,0.6010888671803144
71.0,20.49418946899796,0.4148253846699657,0.012118513008725233,10.90716563227424,0.601099773713333
72.0,20.497929353804906,0.41500951739949604,0.012115029872351673,10.90666170899953,0.6011131119217643
73.0,20.501669463753256,0.41519370068592626,0.012111546780411318,10.906157732786303,0.6011255907603376
74.0,20.505409798508396,0.4153779344859638,0.012108063733441504,10.90565370367854,0.6011374035744219
75.0,20.509150357735226,0.41556221875622906,0.012104580731980709,10.905149621720305,0.6011497223178093
76.0,20.512891141098045,0.41574655345324935,0.012101097773105777,10.904645486955653,0.6011623715464652
77.0,20.51663214825876,0.4159309385334431,0.01209761480262912,10.904141299427387,0.6011756477303112
78.0,20.52037337888086,0.41611537395315845,0.012094131877387785,10.903637059179767,0.6011885004843273
79.0,20.524114832627333,0.41629985966865296,0.012090648997912498,10.903132766257125,0.601199776784741
80.0,20.527856509160706,0.4164843956360984,0.012087166164732372,10.902628420703874,0.6012103969718599
81.0,20.53159840814301,0.4166689818115734,0.012083683378374994,10.902124022564506,0.6012215695878705
82.0,20.535340529235807,0.41685361815105954,0.012080200639366274,10.901619571883586,0.6012336798911427
83.0,20.539082872100153,0.4170383046104562,0.012076717948230222,10.90111506870576,0.6012452452241785
84.0,20.542825436396637,0.4172230411455695,0.012073235305488511,10.900610513075751,0.6012564969297586
85.0,20.546568221785368,0.41740782771211743,0.012069752711659946,10.90010590503836,0.6012674316262075
86.0,20.550311227925956,0.4175926642657211,0.01206627016725994,10.899601244638468,0.6012780316581589
87.0,20.554054454477534,0.41777755076191775,0.012062787672799927,10.89909653192103,0.6012882645823614
88.0,20.557797901098752,0.41796248715614687,0.012059305228786645,10.898591766931084,0.6012988593166618
89.0,20.561541567447755,0.4181474734037654,0.012055822835721547,10.898086949713743,0.6013115807959679
90.0,20.56528545318224,0.4183325094600357,0.012052340494100072,10.897582080314201,0.601321600497657
91.0,20.56902955795937,0.4185175952801237,0.012048858204410961,10.897077158777732,0.6013320466097875
92.0,20.572773881435857,0.41870273081911363,0.012045375967135591,10.896572185149685,0.6013433177997304
93.0,20.57651842326791,0.41888791603199743,0.012041893782747237,10.896067159475491,0.6013548255186141
94.0,20.580263183111242,0.41907315087366576,0.012038411651710355,10.895562081800659,0.6013659576033908
95.0,20.584008160621096,0.4192584352989355,0.012034929574480019,10.895056952170778,0.6013767775343924
96.0,20.58775335545221,0.41944376926252014,0.012031447551501007,10.894551770631518,0.6013873057455704
97.0,20.591498767258834,0.4196291527190457,0.012027965583207486,10.894046537228624,0.6013975668078864
98.0,20.59524439569475,0.41981458562304796,0.012024483670021907,10.893541252007926,0.6014075534229663
99.0,20.5989902404132,0.42000006792897215,0.012021001812354772,10.893035915015332,0.6014173641056562
100.0,20.602736301066997,0.42018559959116747,0.01201752001060372,10.892530526296829,0.6014274979060112
101.0,20.606482577308412,0.42037118056390094,0.012014038265153003,10.892025085898483,0.6014379930115882
102.0,20.610229068789252,0.42055681080134066,0.01201055657637302,10.891519593866445,0.6014492504396475
103.0,20.613975775160775,0.42074249025756777,0.012007074943287854,10.89101405024682,0.6014605853374104
104.0,20.617722696072178,0.42092821888640936,0.01200359331638874,10.890508455081456,0.60147188141532
105.0,20.621469831173812,0.42111399664176746,0.012000111743500994,10.890002808416758,0.6014829906153752
106.0,20.625217180115545,0.4212998234774588,0.011996630225010687,10.889497110299219,0.6014938004068625
107.0,20.628964742546753,0.4214856993472056,0.011993148761291123,10.888991360775412,0.6015042847199269
108.0,20.632712518116314,0.4216716242046401,0.011989667352702403,10.88848555989199,0.6015146555081592
109.0,20.63646050647261,0.42185759800329947,0.011986185999590924,10.88797970769569,0.6015250060937541
110.0,20.640208707263543,0.4220436206966331,0.011982704698284614,10.887473804233338,0.6015353562783785
111.0,20.643957120135987,0.4222296922379504,0.011979223441736773,10.886967849550961,0.6015457240643322
112.0,20.64770574473502,0.4224158125803467,0.01197574221684996,10.886461843692553,0.6015560155213655
113.0,20.651454580707078,0.4226019816770003,0.01197226104008273,10.8859557867052,0.6015662343627186
114.0,20.655203627698086,0.4227881994809957,0.011968779911791084,10.885449678636068,0.6015757316941786
115.0,20.658952885353496,0.4229744659453309,0.011965298832321726,10.884943519532406,0.6015854630502323
116.0,20.66270235331825,0.4231607810229112,0.011961817802011724,10.88443730944155,0.6015962716442703
117.0,20.666452031236794,0.4233471446665564,0.011958336821187819,10.883931048410917,0.6016054461452877
118.0,20.670201918753097,0.4235335568289916,0.01195485589016615,10.883424736488006,0.6016147173771704
119.0,20.673952015510615,0.42372001746284654,0.01195137500925171,10.882918373720406,0.6016256532401053
120.0,20.677702321152317,0.42390652652066824,0.011947894147411025,10.882411960155064,0.601636155601016
121.0,20.68145283532068,0.4240930839549111,0.011944413333878722,10.881905495839675,0.6016463067443194
122.0,20.685203557657672,0.42427968971793084,0.011940932571865195,10.881398980822077,0.6016562535448012
123.0,20.68895448780477,0.4244663437620071,0.011937451861636764,10.880892415150193,0.6016660537975028
124.0,20.692705625402958,0.42465304603931875,0.011933971203445585,10.88038579887203,0.6016757287685605
125.0,20.696456970092715,0.42483979650194675,0.011930490597529438,10.879879132035686,0.6016856194349696
126.0,20.700208521514032,0.4250265951019018,0.01192701004411137,10.879372414689334,0.6016955327391795
127.0,20.703960279306383,0.42521344179108417,0.011923529543399385,10.878865646881238,0.6017055400576178
128.0,20.707712243108766,0.4254003365213112,0.011920049095586041,10.878358828659742,0.6017153761516718
129.0,20.71146441255967,0.4255872792443141,0.011916568700848243,10.877851960073283,0.6017249150450232
130.0,20.715216787297077,0.4257742699117227,0.01191308835934693,10.877345041170372,0.601734236769876
131.0,20.718969366958476,0.42596130847508035,0.01190960807122681,10.876838071999614,0.601743568108556
132.0,20.722722151180868,0.4261483948858438,0.011906127836616128,10.876331052609697,0.6017545695406027
133.0,20.726475139600723,0.42633552909537403,0.011902647655190625,10.875823983049383,0.6017655272697712
134.0,20.730228331854036,0.4265227110549399,0.01189916752555631,10.875316863367509,0.6017762177292348
135.0,20.733981727575795,0.4267099407156514,0.011895687426493391,10.874809693612132,0.6017869511757828
136.0,20.737735326400415,0.42689721802851993,0.011892207353794164,10.87430247383125,0.6017975437178376
137.0,20.74148912796241,0.4270845429445467,0.01188872733265201,10.873795204073966,0.6018080029295634
138.0,20.74524313189579,0.42727191541464554,0.01188524736317544,10.873287884389471,0.6018175944413726
139.0,20.748997337834062,0.4274593353896372,0.011881767445456328,10.872780514827042,0.6018298343031271
140.0,20.752751745410247,0.42764680282025086,0.011878287579569944,10.872273095436043,0.6018406306568981
141.0,20.75650635425682,0.4278343176571278,0.011874807765574832,10.87176562626592,0.6018513541770972
142.0,20.760261164005122,0.4280218798507427,0.011871327987858742,10.871258107365138,0.6018617190548133
143.0,20.764016174285715,0.4282094893514736,0.011867848240874251,10.87075053878188,0.6018716313531264
144.0,20.767771384729613,0.42839714610967844,0.01186436854554057,10.870242920565875,0.601881175236934
145.0,20.771526794967343,0.42858485007564323,0.01186088890188887,10.869735252766931,0.6018909701983142
146.0,20.775282404628896,0.42877260119955074,0.011857409309932603,10.869227535434952,0.6019011400537563
147.0,20.77903821334378,0.4289603994314956,0.011853929769667515,10.868719768619924,0.6019118022828235
148.0,20.782794220741,0.4291482447214839,0.011850450280635768,10.868211952371926,0.6019222627537822
149.0,20.786550426449026,0.4293361370194262,0.011846970839885774,10.867704086741162,0.6019326736182443
150.0,20.790306830095865,0.4295240762751484,0.011843491447370395,10.867196171777923,0.6019433384538411
151.0,20.79406343130899,0.4297120624383786,0.011840012103027124,10.866688207532588,0.6019537321253778
152.0,20.797820229715377,0.42990009545875213,0.011836532806778247,10.866180194055625,0.6019622532508261
153.0,20.8015772249415,0.43008817528582144,0.011833053558530735,10.865672131397586,0.6019729988870911
154.0,20.805334416613313,0.4302763018690436,0.011829574358176276,10.865164019609116,0.6019831183307577
155.0,20.809091804356278,0.43046447515778113,0.011826095205591141,10.864655858740946,0.6019929420169805
156.0,20.812849387795346,0.4306526951013105,0.011822616100636235,10.864147648843892,0.6020027703407244
157.0,20.816607166554952,0.43084096164881064,0.011819137027394051,10.863639389968698,0.6020125780905533
158.0,20.820365140259042,0.43102927474938085,0.011815657979721918,10.863131082166127,0.602022289034673
159.0,20.824123308531032,0.4312176343520151,0.011812178946529002,10.862622725486496,0.6020318110138504
160.0,20.827881670993857,0.4314060404056202,0.011808699958241447,10.862114319980952,0.6020410518346387
161.0,20.83164022726993,0.4315944928590217,0.011805221015414617,10.86160586570076,0.602050107561307
162.0,20.835398976981146,0.43178299166094,0.011801742117854943,10.861097362697267,0.6020592990344883
163.0,20.839157919748914,0.4319715367600125,0.01179826326535521,10.860588811021914,0.6020688982174253
164.0,20.84291705519412,0.43216012810478327,0.01179478445769443,10.86008021072623,0.6020786735897645
165.0,20.846676382937147,0.43234876564370267,0.011791305694638009,10.85957156186183,0.6020884154979289
166.0,20.85043590259788,0.43253744932513505,0.011787826975937882,10.859062864480427,0.6020981220549244
167.0,20.85419561379567,0.43272617909735306,0.011784348301332707,10.858554118633819,0.6021078160336183
168.0,20.857955516149392,0.43291495490853,0.011780869670547965,10.858045324373892,0.6021172684864982
169.0,20.861715609272686,0.4331037767061085,0.011777391002732118,10.857536481750769,0.6021264739188136
170.0,20.865475892780687,0.433292644437707,0.011773912316662484,10.857027590814962,0.6021359515535408
171.0,20.869236366290814,0.43348155805123617,0.011770433668190406,10.85651865161862,0.6021462852418037
172.0,20.872997029419995,0.43367051749452495,0.011766955057177647,10.85600966421398,0.6021564233377504
173.0,20.87675788178466,0.4338595227153017,0.011763476483483287,10.855500628653372,0.6021666181106768
174.0,20.880518923000718,0.4340485736612097,0.011759997946261662,10.854991544989225,0.60217680649368
175.0,20.884280152683587,0.43423767027980337,0.011756519410140671,10.854482413273642,0.6021868273244624
176.0,20.888041570448177,0.43442681251854154,0.011753040890534994,10.853973233559032,0.6021967072778523
177.0,20.891803175908894,0.4346160003247932,0.011749562402678342,10.853464005898095,0.6022067983827074
178.0,20.89556496867964,0.4348052336458412,0.011746083944608795,10.852954730343628,0.6022168936462496
179.0,20.8993269483738,0.43499451242887616,0.01174260551529833,10.852445406948524,0.6022270305982372
180.0,20.903089114604285,0.4351838366209903,0.011739127114776095,10.85193603576577,0.6022373269441075
181.0,20.90685146698346,0.43537320616919667,0.011735648743075117,10.851426616848439,0.602247675770625
182.0,20.910614005123218,0.4355626210204105,0.011732170400231867,10.850917150249705,0.6022578488963019
183.0,20.914376728634917,0.435752081121461,0.011728692068448704,10.850407636022146,0.6022677095201491
184.0,20.918139637129443,0.43594158641908404,0.011725213756837528,10.849898074218812,0.6022771434261625
185.0,20.92190273021714,0.4361311368599213,0.011721735450107127,10.849388464892861,0.6022861440061286
186.0,20.92566600750787,0.43632073239053293,0.011718257173213816,10.848878808097867,0.6022947485774505
187.0,20.929429468610977,0.43651037295737954,0.011714778926246526,10.84836910388749,0.6023030630858616
188.0,20.933193113135307,0.4367000585068355,0.011711300709294716,10.847859352315494,0.6023112382747763
189.0,20.936956940689186,0.4368897889851877,0.01170782252244823,10.847349553435732,0.602319465145528
190.0,20.940720950880447,0.4370795643386233,0.011704344365796931,10.846839707302152,0.6023281744733205
191.0,20.9444851433164,0.437269384513249,0.011700866239430414,10.846329813968797,0.6023378099459052
192.0,20.948249517603855,0.4374592494550689,0.011697388133999205,10.845819873489724,0.6023474556960676
193.0,20.952014073349122,0.43764915911000873,0.011693910048633568,10.845309885919066,0.6023570465891325
