k,PSNR,SSIM,mse,Log-Gradient,Angle
0.0,20.229860694117306,0.40191505161090957,0.0,10.942727552152892,0.5986436715566542
1.0,20.23300701083312,0.40206592846921024,0.010250388305035458,10.942302110876094,0.6002543071510302
2.0,20.236701880209527,0.40224485670137256,0.01221491527474839,10.941805683280633,0.600289018680776
3.0,20.24042134789068,0.40242517172937675,0.012330602182484631,10.94130608525767,0.6003132662540951
4.0,20.244142772514415,0.4026056454049362,0.012340073250399259,10.94080620167733,0.6003319248736566
5.0,20.247864295643836,0.4027861702482038,0.012338094817465171,10.940306276566567,0.6003481437732836
6.0,20.251585655628098,0.4029667301922833,0.012334048618683927,10.939806347000337,0.6003655453887914
7.0,20.255306793519033,0.4031473213204495,0.012329398427351547,10.939306422508867,0.6003776895215539
8.0,20.259027690317954,0.40332794233823366,0.012324527140868078,10.938806506041018,0.6003896437899265
9.0,20.26274834003669,0.40350859273149325,0.012319563193890075,10.938306598888792,0.6004014488520619
10.0,20.266468739445745,0.40368927215377,0.012314554553242053,10.937806701805675,0.6004128867164845
11.0,20.270188887234806,0.40386998048180084,0.012309520870346764,10.937306815230006,0.6004242755765102
12.0,20.273908782593107,0.40405071762777217,0.012304464717060454,10.936806939486113,0.6004356384516576
13.0,20.277628424864062,0.40423148349915333,0.012299394381261751,10.936307074843183,0.6004468595195013
14.0,20.28134781333941,0.4044122779942785,0.012294313729406781,10.935807221522882,0.6004580134348729
15.0,20.28506694755585,0.4045931010358956,0.012289221289254859,10.935307379717337,0.6004691084758105
16.0,20.28878582703948,0.4047739525605591,0.012284127146189051,10.934807549548228,0.6004801570796887
17.0,20.29250445132137,0.40495483250526826,0.012279031199990216,10.934307731127202,0.6004912244476673
18.0,20.29622281991554,0.40513574081008813,0.012273929386377381,10.933807924567818,0.6005023280393004
19.0,20.299940932370582,0.4053166774142956,0.012268827307008609,10.933308129954115,0.6005134049524045
20.0,20.30365878823739,0.4054976422558143,0.012263725294545832,10.932808347366963,0.6005246168614488
21.0,20.307376387068196,0.4056786352726706,0.012258622132097975,10.932308576896853,0.6005358450746959
22.0,20.311093728416274,0.40585965640296723,0.012253519196052913,10.93180881862722,0.6005470017136695
23.0,20.314810811835603,0.4060407055848411,0.012248416972281632,10.931309072630722,0.6005582383173034
24.0,20.318527636880653,0.40622178275643983,0.012243315842826433,10.930809338981819,0.6005695108364687
25.0,20.32224420310167,0.4064028878558199,0.012238215699521632,10.930309617756476,0.6005807923933596
26.0,20.32596051004151,0.40658402082083356,0.012233115901496902,10.929809909032056,0.6005920317286141
27.0,20.32967655725595,0.40676518158961733,0.012228015922306297,10.929310212883111,0.6006032745400903
28.0,20.333392344300854,0.40694637010027757,0.01222291703652745,10.92881052938293,0.6006144990892177
29.0,20.33710787073212,0.4071275862908926,0.012217819358488202,10.928310858604322,0.6006256870231719
30.0,20.34082313610564,0.40730883009949653,0.012212722894370948,10.927811200619903,0.6006369390052319
31.0,20.344538139977296,0.40749010146409176,0.012207627648749591,10.927311555502158,0.6006481938242373
32.0,20.348252881902905,0.4076714003226361,0.012202533456096894,10.926811923319214,0.600659413993657
33.0,20.351967361438213,0.4078527266130367,0.01219744042402597,10.926312304142044,0.6006706675383983
34.0,20.35568157813257,0.4080340802724906,0.01219234811231612,10.925812698047478,0.6006818954984975
35.0,20.359395531529326,0.40821546123793784,0.012187256145331627,10.925313105110847,0.6006932494695372
36.0,20.363109221184402,0.40839686944718073,0.012182164994749377,10.924813525406332,0.6007046797548613
37.0,20.36682264665364,0.4085783048379823,0.012177074769705075,10.924313959009108,0.6007160237300659
38.0,20.37053580749278,0.4087597673480537,0.012171985524333007,10.923814405991575,0.6007273198210034
39.0,20.37424870325742,0.4089412569150572,0.012166897177769632,10.923314866426296,0.6007387071722526
40.0,20.37796133350308,0.4091227734766058,0.012161810008206018,10.922815340385167,0.6007500794146723
41.0,20.381673697785125,0.40930431697026765,0.012156724016827545,10.922315827940094,0.6007614169139478
42.0,20.385385795658813,0.4094858873335531,0.012151639204658653,10.921816329162992,0.600772668679979
43.0,20.389097626679302,0.40966748450393203,0.012146555572590608,10.921316844125792,0.6007838258187893
44.0,20.39280919040157,0.40984910841881544,0.012141473121404647,10.920817372900444,0.6007948571339147
45.0,20.39652048638052,0.41003075901557445,0.01213639185179137,10.92031791555892,0.600805744824575
46.0,20.400231514170905,0.41021243623152087,0.012131311764366775,10.919818472173214,0.6008166358037219
47.0,20.403942273327335,0.4103941400039252,0.01212623285968573,10.919319042815344,0.6008273784647417
48.0,20.407652763404315,0.4105758702699953,0.012121155138253188,10.918819627557358,0.6008379682343754
49.0,20.411362983956206,0.4107576269669075,0.012116078600533672,10.918320226471327,0.6008484691856225
50.0,20.415072934537232,0.4109394100317731,0.012111003246959162,10.917820839629353,0.6008589527262969
51.0,20.4187826147015,0.4111212194016571,0.012105929077935776,10.917321467103571,0.6008705478301523
52.0,20.422492024002988,0.4113030550135772,0.012100856093849565,10.916822108966144,0.6008820886573275
53.0,20.426201161995504,0.4114849168044985,0.012095784295071145,10.916322765289264,0.6008934405029723
54.0,20.429910028232765,0.4116668047113343,0.012090713681959894,10.915823436145159,0.6009046942449116
55.0,20.433618622268103,0.4118487186709067,0.012085644252214485,10.915324121606087,0.6009159107418404
56.0,20.437326943642287,0.41203065861728816,0.012080575871295364,10.914824821744306,0.6009271334737365
57.0,20.44103499190878,0.41221262448727863,0.01207550867400386,10.914325536632077,0.6009382747848896
58.0,20.444742766620937,0.4123946162176216,0.012070442478980937,10.913826266340289,0.6009494844509574
59.0,20.448450267331953,0.41257663374501297,0.01206537747234416,10.913327010941302,0.6009607528108827
60.0,20.45215749359489,0.4127586770061035,0.01206031365465923,10.912827770507516,0.6009719344035408
61.0,20.455864444962707,0.41294074593749075,0.012055251026492221,10.912328545111363,0.6009830495309407
62.0,20.45957112098819,0.41312284047572495,0.012050189588410698,10.911829334825306,0.6009940133287027
63.0,20.46327752122403,0.41330496055730265,0.01204512934098415,10.91133013972185,0.6010049757679268
64.0,20.46698364522276,0.41348710611867884,0.012040070284784878,10.910830959873527,0.6010161091971181
65.0,20.470689492536792,0.41366927709625406,0.012035012420388298,10.910331795352912,0.6010273269243372
66.0,20.474395062718408,0.41385147342637696,0.01202995574837329,10.909832646232607,0.6010385911258074
67.0,20.478100355319746,0.414033695045357,0.012024900269322377,10.909333512585256,0.6010500525353736
68.0,20.481805369892825,0.41421594188944777,0.012019845983821708,10.908834394483534,0.6010617466454677
69.0,20.485510105989526,0.4143982138948526,0.01201479289246099,10.908335292000155,0.6010734372700816
70.0,20.489214563161603,0.41458051099773585,0.01200974099583339,10.907836205207861,0.6010849598552966
71.0,20.492918740960665,0.41476283313420126,0.012004690294535266,10.907337134179437,0.6010959022284675
72.0,20.496622638938206,0.4149451802403112,0.011999640789165872,10.9068380789877,0.601108462055698
73.0,20.50032625664557,0.4151275522520748,0.011994592480326924,10.906339039705502,0.6011213305016325
74.0,20.504029593633998,0.4153099491054609,0.011989545368622173,10.905840016405731,0.6011329691990982
75.0,20.50773264945457,0.41549237073638157,0.011984499454657183,10.905341009161313,0.6011449195542214
76.0,20.51143542365821,0.4156748170807056,0.011979454737984379,10.904842018045178,0.6011573193495894
77.0,20.51513791579364,0.41585728807422545,0.01197441115896726,10.904343043128865,0.6011702191908045
78.0,20.5188401254116,0.4160397836527187,0.01196936877761746,10.903844084485367,0.6011832802469332
79.0,20.52254205206267,0.4162223037519102,0.011964327594535007,10.903345142187721,0.601195141397039
80.0,20.52624369529731,0.4164048483074696,0.011959287610318746,10.902846216308989,0.6012057117916695
81.0,20.529945054665866,0.41658741725503035,0.011954248825566437,10.902347306922275,0.6012163643251968
82.0,20.53364612971855,0.41677001053016993,0.011949211240874634,10.901848414100714,0.6012281362093754
83.0,20.53734692000543,0.4169526280684224,0.011944174856838494,10.901349537917481,0.6012398284292271
84.0,20.541047425076453,0.4171352698052753,0.011939139674051285,10.900850678445785,0.6012510685762421
85.0,20.54474764448145,0.41731793567616515,0.011934105693103918,10.900351835758869,0.6012620300637095
86.0,20.548447577770105,0.4175006256164797,0.011929072914584444,10.899853009930013,0.6012726744348728
87.0,20.55214722449199,0.4176833395615665,0.011924041339077457,10.89935420103253,0.6012829781276918
88.0,20.55584658419654,0.41786607744672355,0.01191901096716327,10.898855409139772,0.6012929537387441
89.0,20.55954565643306,0.4180488392071962,0.011913981799417635,10.898356634325125,0.6013054256925585
90.0,20.563244440750733,0.41823162477818937,0.011908953836410647,10.897857876662014,0.6013158533149797
91.0,20.56694293669862,0.41841443409485796,0.01190392707870636,10.89735913622389,0.6013260567946596
92.0,20.570641143825643,0.418597267092311,0.01189890152686201,10.896860413084251,0.6013366208111723
93.0,20.574339061680607,0.41878012370560996,0.011893877181427218,10.896361707316622,0.6013479945204426
94.0,20.578036689812187,0.4189630038697745,0.01188885404294344,10.89586301899457,0.6013592331203488
95.0,20.581734027768928,0.4191459075197708,0.011883832111943294,10.89536434819169,0.6013700621618128
96.0,20.585431075099258,0.41932883459052106,0.011878811388949749,10.89486569498162,0.6013806556963994
97.0,20.589127831351462,0.41951178501690684,0.011873791874475589,10.894367059438032,0.6013909329628596
98.0,20.592824296073722,0.4196947587337532,0.011868773569022627,10.893868441634629,0.6014009528344701
99.0,20.596520468814088,0.4198777556758501,0.01186375647308129,10.893369841645152,0.6014107385494273
100.0,20.600216349120473,0.4200607757779303,0.01185874058712974,10.89287125954338,0.6014204478289655
101.0,20.603911936540666,0.4202438189746928,0.011853725911633419,10.892372695403127,0.601430514842787
102.0,20.607607230622346,0.4204268852007819,0.011848712447044435,10.891874149298237,0.6014411065982331
103.0,20.61130223091306,0.4206099743907988,0.01184370019380093,10.891375621302597,0.6014522936497383
104.0,20.614996936959066,0.42079308647919067,0.011838689113693446,10.89087711148686,0.601463450222415
105.0,20.618691348307223,0.42097622140041985,0.011833679227386353,10.89037861992371,0.6014745738568933
106.0,20.622385464504745,0.4211593790889628,0.011828670550062488,10.889880146687158,0.6014854437118915
107.0,20.62607928509873,0.42134255947924676,0.011823663082181116,10.889381691851252,0.6014960246329762
108.0,20.629772809636144,0.4215257625056507,0.011818656824188926,10.888883255490073,0.6015062963341485
109.0,20.633466037663844,0.4217089881025118,0.011813651776519489,10.888384837677748,0.6015165251304052
110.0,20.637158968728563,0.42189223620412425,0.01180864793959276,10.887886438488428,0.6015266974819378
111.0,20.640851602376912,0.42207550674473265,0.011803645307748236,10.887388057996318,0.601536913528545
112.0,20.644543938153337,0.4222587996583449,0.011798643859640467,10.886889696272263,0.6015471036564402
113.0,20.64823597560396,0.42244211487909783,0.011793643612164235,10.886391353390087,0.6015572350359257
114.0,20.651927714275033,0.42262545234110793,0.011788644568518301,10.88589302942411,0.6015672643935509
115.0,20.655619153712724,0.4228088119784437,0.011783646729138748,10.885394724448696,0.6015764898200472
116.0,20.659310293463058,0.4229921937251358,0.01177865009445248,10.884896438538235,0.6015863038570569
117.0,20.66300113307196,0.42317559751517164,0.011773654664876789,10.884398171767161,0.6015968119742577
118.0,20.66669167208522,0.42335902328248814,0.011768660440818847,10.883899924209944,0.6016057851699905
119.0,20.670381910048544,0.4235424709609865,0.011763667422675279,10.883401695941087,0.6016149815447843
120.0,20.67407184650748,0.4237259404845231,0.011758675584003056,10.882903487034534,0.601625730626932
121.0,20.677761481007497,0.4239094317869088,0.011753684944740942,10.88240529756469,0.601636051616127
122.0,20.68145081309392,0.4240929448019089,0.011748695513092633,10.881907127606175,0.6016460299217722
123.0,20.685139842311976,0.4242764794632512,0.01174370728941849,10.881408977233644,0.6016558121211212
124.0,20.688828568206784,0.4244600357046175,0.011738720274065435,10.88091084652179,0.6016654498575834
125.0,20.692516990323313,0.42464361345965135,0.01173373446736657,10.880412735545343,0.6016749530913553
126.0,20.696205108206453,0.4248272126619426,0.011728749869640873,10.87991464437907,0.6016846444198621
127.0,20.699892921400966,0.42501083324504885,0.011723766481192872,10.879416573097773,0.6016943786752185
128.0,20.703580429451506,0.42519447514248215,0.011718784302312333,10.878918521776292,0.6017042094675582
129.0,20.7072676319026,0.42537813828771237,0.011713803333273922,10.878420490489502,0.6017138896014703
130.0,20.71095452829868,0.42556182261416325,0.011708823574337043,10.877922479312314,0.6017233084176045
131.0,20.714641118184044,0.4257455280552181,0.01170384502574544,10.87742448831968,0.6017324562921794
132.0,20.718327401102904,0.42592925454422464,0.01169886768772709,10.876926517586584,0.6017415482635854
133.0,20.72201337659933,0.4261130020144783,0.011693891560493854,10.876428567188047,0.6017520016864646
134.0,20.7256990442173,0.42629677039923625,0.011688916643404143,10.875930637199117,0.6017628372445597
135.0,20.729384403500678,0.42648055963171916,0.011683942935574806,10.875432727694866,0.6017733480714406
136.0,20.7330694539923,0.4266643696449745,0.011678970396333078,10.874934838748807,0.6017838486024553
137.0,20.73675419523569,0.42684820037211263,0.011673999059690021,10.874436970435838,0.6017942897671266
138.0,20.740438626774406,0.4270320517462389,0.011669028932392099,10.873939122831155,0.6018045499986909
139.0,20.7441227481519,0.4272159237004017,0.01166406001463454,10.873441296009988,0.6018146431649526
140.0,20.747806558911513,0.4273998161676198,0.01165909230659656,10.872943490047607,0.6018254368713993
141.0,20.751490058596467,0.4275837290808627,0.011654125808441235,10.872445705019317,0.6018365194531272
142.0,20.75517324674989,0.4277676623730638,0.011649160520315427,10.871947941000458,0.6018470241084862
143.0,20.758856122913585,0.4279516159769959,0.011644196413648077,10.8714501980645,0.6018573099718063
144.0,20.762538686630098,0.42813558982547556,0.011639233508290357,10.870952476286293,0.6018672471387368
145.0,20.766220937442252,0.42831958385131497,0.011634271813034032,10.870454775741301,0.6018767137000048
146.0,20.769902874892757,0.4285035979872875,0.011629311328000875,10.869957096505031,0.6018861324653169
147.0,20.773584498524226,0.4286876321661179,0.011624352053295683,10.869459438653022,0.6018957666969232
148.0,20.777265807879147,0.42887168632050127,0.011619393989006197,10.86896180226085,0.6019061502535614
149.0,20.780946802499926,0.4290557603830878,0.011614437135203007,10.868464187404133,0.601916463033548
150.0,20.784627481928833,0.4292398542864848,0.011609481489018726,10.86796659415855,0.6019266530206586
151.0,20.78830784570806,0.4294239679632608,0.011604527050128328,10.867469022599835,0.6019368574295736
152.0,20.79198789337967,0.42960810134594823,0.011599573818564262,10.866971472803746,0.6019474632725061
153.0,20.795667624485652,0.4297922543670338,0.011594621794344452,10.866473944846087,0.6019567163786398
154.0,20.799347038567863,0.4299764269589689,0.011589670977472329,10.865976438802694,0.6019658513742323
155.0,20.80302613516807,0.4301606190541605,0.011584721367936849,10.865478954749438,0.6019762176678954
156.0,20.806704913827943,0.4303448305849798,0.011579772965712408,10.86498149276223,0.6019859776007551
157.0,20.810383374089028,0.43052906148375714,0.011574825770759013,10.864484052917012,0.6019955599214436
158.0,20.814061515492792,0.43071331168278304,0.011569879761087616,10.863986635289546,0.6020051590132133
159.0,20.817739337580583,0.43089758111430626,0.011564934932690861,10.863489239955454,0.6020147168288209
160.0,20.82141683989366,0.4310818697105428,0.011559991286649389,10.862991866990242,0.6020241767181317
161.0,20.825094021973175,0.4312661774036635,0.011555048846345051,10.862494516469999,0.6020334304081151
162.0,20.828770883360185,0.4314505041258077,0.01155010761170352,10.861997188470848,0.6020424202221536
163.0,20.832447423595642,0.4316348498090612,0.011545167582637888,10.861499883068955,0.602051336378635
164.0,20.836123642220407,0.4318192143854896,0.011540228759048494,10.861002600340514,0.6020603974038552
165.0,20.839799538775235,0.4320035977871067,0.011535291140823125,10.860505340361764,0.6020697877795304
166.0,20.843475112800782,0.4321879999458913,0.011530354727837071,10.86000810320897,0.6020793481113097
167.0,20.84715036383761,0.4323724207937852,0.011525419519953301,10.859510888958448,0.602088862343198
168.0,20.850825291426194,0.43255686026269374,0.011520485517022646,10.85901369768654,0.6020983456884638
169.0,20.854499895106894,0.43274131828447865,0.011515552718884065,10.858516529469625,0.6021078113257875
170.0,20.858174174415318,0.43292579479031573,0.011510621042657461,10.85801938438234,0.60211704511153
171.0,20.86184812888908,0.4331102897116453,0.011505690507517624,10.857522262499561,0.6021260595085607
172.0,20.865521758068382,0.4332948029802209,0.011500761171474775,10.857025163897765,0.6021352874180068
173.0,20.869195061493304,0.43347933452777215,0.011495833034516647,10.856528088653471,0.6021454106825254
174.0,20.872868038703864,0.4336638842859734,0.011490906096629045,10.856031036843234,0.6021553037918622
175.0,20.876540689239977,0.43384845218648876,0.011485980357795536,10.855534008543648,0.6021652253855673
176.0,20.88021301264147,0.4340330381609178,0.01148105578565062,10.855037003830958,0.6021751981520723
177.0,20.883885008448097,0.4342176421408442,0.01147613238936536,10.854540022781611,0.6021850142232703
178.0,20.887556676199498,0.43440226405780424,0.01147121018711216,10.854043065472316,0.6021946679673986
179.0,20.891228015435267,0.4345869038432985,0.011466289179005692,10.853546131979813,0.6022044394279746
180.0,20.89489902569487,0.4347715614287975,0.011461369363237167,10.853049222380891,0.6022142903666855
181.0,20.898569706517726,0.43495623674572936,0.01145645073895141,10.852552336752373,0.6022241695651709
182.0,20.90224005744313,0.4351409297254885,0.011451533306305413,10.852055475171122,0.6022341384729627
183.0,20.90591007801033,0.4353256402994335,0.011446617065460471,10.85155863771404,0.6022442144172341
184.0,20.90957976775846,0.4355103683988853,0.011441702016581682,10.851061824458066,0.602254211757031
185.0,20.91324912622659,0.43569511395512844,0.0114367881353088,10.850565035479255,0.6022639870348285
186.0,20.9169181529537,0.43587987689942126,0.011431875438263843,10.85006827085452,0.6022733381418753
187.0,20.92058684747868,0.4360646571629741,0.011426963917018843,10.849571530660715,0.6022823813649415
188.0,20.924255209340345,0.4362494546769646,0.011422053589325222,10.849074814974959,0.6022908815167438
189.0,20.927923238077433,0.43643426937253893,0.01141714445540097,10.8485781238744,0.6022991089001771
190.0,20.93159093322859,0.4366191011808092,0.011412236515465054,10.848081457436235,0.6023070995331736
191.0,20.935258294332396,0.43680395003284495,0.011407329769737231,10.847584815737688,0.6023149836953593
192.0,20.938925320927318,0.436988815859689,0.011402424218437747,10.84708819885603,0.6023231091814253
193.0,20.94259201255179,0.4371736985923447,0.011397519861787173,10.846591606868563,0.6023319715583343
