k,PSNR,SSIM,mse,Log-Gradient,Angle
0.0,20.229860694117306,0.40191505161090957,0.0,10.942727552152892,0.5986436715566542
1.0,20.233006661353624,0.4020659117087861,0.010249249878968423,10.942302158134572,0.6002543059563188
2.0,20.23670077079546,0.4022448032936832,0.0122124351730565,10.941805832955033,0.6002890169144022
3.0,20.24041906529609,0.4024250616211659,0.012326758340610805,10.94130639287479,0.6003132613804733
4.0,20.244138903239183,0.40260545851420065,0.012334862024488958,10.9408067228094,0.6003319162154358
5.0,20.24785842613761,0.40278588647602004,0.012331516372028232,10.940307066804287,0.6003481283756948
6.0,20.251577372318867,0.40296632942459415,0.012326103905562439,10.939807461948757,0.6003655225367396
7.0,20.25529568281984,0.4031467834285258,0.012320088596439596,10.939307917786254,0.6003776557057995
8.0,20.25901333862928,0.40332724717884566,0.012313853412156888,10.938808437278468,0.6003896024997806
9.0,20.262730333747434,0.40350772014700603,0.012307526818708548,10.938309021730033,0.6004013962443288
10.0,20.266446664933856,0.40368820197221944,0.012301156798896743,10.937809671906933,0.6004128209616247
11.0,20.270162330867766,0.4038686925169377,0.012294763010166852,10.937310388259906,0.6004241979874977
12.0,20.27387733072828,0.40404919167911024,0.012288348024977466,10.936811171125592,0.6004355460954158
13.0,20.277591663849094,0.4042296993520069,0.012281920135135113,10.936312020785422,0.6004467514406532
14.0,20.281305329512584,0.40441021541981476,0.012275483208512251,10.935812937473237,0.6004578881404564
15.0,20.285018327246473,0.4045907397911858,0.012269035771705033,10.935313921393272,0.600468964112703
16.0,20.288730656568216,0.4047712723885985,0.012262587916403885,10.934814972679254,0.6004799936206866
17.0,20.29244231700062,0.40495181313503775,0.012256139540663315,10.934316091454829,0.6004910374859421
18.0,20.296153308049742,0.40513236195658203,0.012249686577001902,10.933817277845504,0.6005021196486813
19.0,20.299863629256613,0.4053129187785753,0.012243234632460924,10.93331853194721,0.6005131713256133
20.0,20.303573280164876,0.4054934835250387,0.012236784038462997,10.932819853852651,0.6005243549809024
21.0,20.307282260319912,0.40567405612014706,0.012230333576304493,10.932321243664127,0.6005355583309216
22.0,20.310990569268444,0.4058546364881866,0.012223884625553934,10.931822701476802,0.6005466878029749
23.0,20.31469820655829,0.4060352245535214,0.012217437670508362,10.931324227375027,0.6005578939319917
24.0,20.31840517173808,0.40621582024057307,0.012210993093587665,10.930825821444905,0.6005691364208017
25.0,20.322111464352567,0.4063964234737023,0.012204550785070474,10.930327483774002,0.6005803873227126
26.0,20.3258170839395,0.4065770341771169,0.012198110103949672,10.929829214451216,0.6005915926098031
27.0,20.329522030049894,0.40675765227535354,0.012191670522711067,10.929331013562601,0.6006028053355535
28.0,20.33322630223518,0.40693827769295104,0.012185233317906354,10.928832881192887,0.6006139943586105
29.0,20.336929900047185,0.4071189103544664,0.01217879860288873,10.928334817426276,0.6006251448073189
30.0,20.340632823038103,0.4072995501844631,0.012172366383477263,10.927836822346734,0.600636359143086
31.0,20.34433507076043,0.4074801971074998,0.012165936663881544,10.92733889603804,0.6006475746993513
32.0,20.348036642766978,0.4076608510481418,0.01215950927784018,10.926841038579575,0.6006587548021783
33.0,20.351737538610834,0.40784151193095214,0.012153084332627396,10.926343250053506,0.6006699673781931
34.0,20.35543775783902,0.4080221796798053,0.01214666138590557,10.925845530547814,0.6006811515679735
35.0,20.359137299992952,0.40820285421838465,0.012140240062214376,10.925347880148927,0.6006924468391807
36.0,20.362836164626955,0.40838353547127143,0.012133820832901506,10.92485029894209,0.6007038347575561
37.0,20.366534351295623,0.40856422336304193,0.012127403808991502,10.924352787013463,0.6007151378014483
38.0,20.3702318595538,0.40874491781827377,0.01212098903960999,10.9238553444464,0.6007263870538712
39.0,20.373928688956553,0.40892561876153244,0.012114576450307075,10.923357971324357,0.6007377179298138
40.0,20.377624839059205,0.40910632611738046,0.012108166315988723,10.922860667730081,0.600749044806125
41.0,20.381320309417312,0.4092870398103736,0.012101758637472464,10.922363433746273,0.6007603325736266
42.0,20.385015099586646,0.40946775976505784,0.012095353415414954,10.921866269455597,0.6007715404736385
43.0,20.388709209123242,0.4096484859059782,0.012088950650339577,10.921369174940684,0.6007826520191771
44.0,20.39240263758332,0.40982921815767054,0.012082550342659782,10.920872150284133,0.6007936482103191
45.0,20.39609538452337,0.4100099564446576,0.012076152492698417,10.92037519556851,0.6008044853523756
46.0,20.39978744950008,0.41019070069147473,0.012069757100703866,10.919878310876362,0.600815330489059
47.0,20.403478832070377,0.410371450822626,0.012063364166863356,10.9193814962902,0.600826035099335
48.0,20.407169531791418,0.4105522067626279,0.01205697369131445,10.91888475189252,0.6008365845199793
49.0,20.41085954822057,0.41073296843597656,0.0120505856741542,10.918388077765792,0.6008470349686607
50.0,20.414548880915447,0.41091373576717394,0.012044200115447379,10.917891473992462,0.6008574347412561
51.0,20.418237529433863,0.4110945086807061,0.012037817015232958,10.917394940654958,0.6008688321449303
52.0,20.421925493333877,0.41127528710105615,0.012031436373530007,10.916898477835689,0.6008803229657216
53.0,20.425612772173764,0.4114560709527084,0.012025058190342228,10.916402085617042,0.600891636366664
54.0,20.429299365512016,0.4116368601601242,0.012018682465662282,10.915905764081383,0.6009028266008946
55.0,20.432985272907107,0.4118176546477201,0.01201230919670127,10.915409513311067,0.6009139726497102
56.0,20.43667049390535,0.4119984543372177,0.012005938248037657,10.914913333388391,0.6009251340856167
57.0,20.440355028066065,0.4121792591531011,0.011999569751436547,10.914417224395583,0.6009362091906482
58.0,20.444038874948838,0.4123600690198477,0.011993203531013531,10.913921186413491,0.6009473264230156
59.0,20.447722034113465,0.41254088386192916,0.011986839769985174,10.913425219524369,0.6009585112518797
60.0,20.451404505119946,0.4127217036038129,0.011980478468551607,10.912929323810445,0.6009696429335347
61.0,20.45508628752855,0.4129025281699577,0.011974119626913457,10.91243349935394,0.6009806995178602
62.0,20.45876738089973,0.41308335748482666,0.011967763245272897,10.91193774623705,0.6009916096746694
63.0,20.4624477847942,0.4132641914728657,0.011961409323834393,10.91144206454196,0.6010024939758372
64.0,20.466127498772877,0.41344503005852756,0.011955057862805167,10.910946454350835,0.6010134689480137
65.0,20.46980652239693,0.4136258731662505,0.011948708862395846,10.910450915745825,0.6010246083003633
66.0,20.473484855227724,0.4138067207204755,0.011942362322820723,10.90995544880906,0.6010357796469744
67.0,20.47716249682688,0.41398757264563985,0.01193601824429774,10.909460053622656,0.6010470506157682
68.0,20.48083944675623,0.41416842886616684,0.011929676627048821,10.908964730268714,0.601058618364397
69.0,20.484515704577856,0.4143492893064858,0.01192333747129956,10.908469478829316,0.6010702461724236
70.0,20.48819126985403,0.4145301538910217,0.011917000777279127,10.907974299386527,0.6010817026675281
71.0,20.4918661421473,0.41471102254418907,0.011910666545220187,10.907479192022397,0.6010926700548683
72.0,20.49554032102041,0.41489189519040126,0.011904334775358384,10.906984156818956,0.6011045176833926
73.0,20.49921380603635,0.41507277175407387,0.01189800546793201,10.906489193858219,0.6011177271408522
74.0,20.502886596758326,0.4152536521596144,0.011891678623181749,10.905994303222187,0.6011293422167497
75.0,20.5065586927498,0.4154345363314249,0.011885354241350074,10.905499484992838,0.6011409808457518
76.0,20.51023009357443,0.4156154241939074,0.011879032322680635,10.905004739252137,0.6011531753496981
77.0,20.513900798794033,0.41579631567144076,0.011872712805449123,10.904510066080583,0.6011657175188289
78.0,20.51757080797274,0.4159772106884209,0.011866395749008081,10.904015465560049,0.6011787766496526
79.0,20.52124012067495,0.4161581091692423,0.011860081154562213,10.903520937772415,0.6011910886166759
80.0,20.524908736465292,0.4163390110382909,0.011853769022348797,10.903026482799543,0.6012018561649454
81.0,20.528576654908626,0.41651991621996526,0.011847459352604409,10.902532100723278,0.6012122840147059
82.0,20.53224387557006,0.4167008246386466,0.011841152145564532,10.902037791625444,0.6012234697792986
83.0,20.53591039801493,0.4168817362187252,0.011834847401463539,10.901543555587857,0.6012352546277463
84.0,20.539576221808787,0.4170626508845763,0.011828545120534079,10.901049392692304,0.6012465046472703
85.0,20.543241346517465,0.4172435685605888,0.011822245303006752,10.900555303020562,0.6012575005704323
86.0,20.54690577170698,0.4174244891711409,0.011815947949109527,10.900061286654388,0.601268171024116
87.0,20.550569496943623,0.41760541264060885,0.011809653059067098,10.899567343675523,0.6012785167087278
88.0,20.554232521793892,0.41778633889337496,0.01180336063310035,10.899073474165688,0.6012885076925564
89.0,20.557894845824553,0.4179672678538114,0.01179707067142559,10.898579678206588,0.6012989196787146
90.0,20.56155646860259,0.41814819944629167,0.01179078317425395,10.898085955879909,0.6013113601886049
91.0,20.56521738969522,0.41832913359519464,0.011784498141790781,10.897592307267319,0.6013211547424365
92.0,20.56887760866992,0.4185100702248947,0.011778215574234713,10.89709873245047,0.6013313633691973
93.0,20.572537125094385,0.4186910092597611,0.011771935471777321,10.896605231510994,0.6013422739179283
94.0,20.576195938536554,0.4188719506241716,0.011765657834602131,10.896111804530506,0.6013535318711302
95.0,20.579854048564616,0.41905289424249537,0.01175938266288413,10.895618451590602,0.6013644552102154
96.0,20.58351145474699,0.41923384003910785,0.011753109956789054,10.89512517277286,0.6013750406711115
97.0,20.587168156652336,0.4194147879383802,0.01174683971647266,10.89463196815884,0.6013853743636742
98.0,20.590824153849553,0.4195957378646887,0.011740571942080108,10.894138837830084,0.6013954274782238
99.0,20.594479445907798,0.41977668974240556,0.011734306633745471,10.893645781868114,0.6014052176461827
100.0,20.59813403239644,0.4199576434959023,0.01172804379159086,10.893152800354436,0.6014148155269421
101.0,20.60178791288511,0.4201385990495577,0.011721783415726012,10.892659893370535,0.6014245930613972
102.0,20.60544108694369,0.42031955632774726,0.01171552550624762,10.89216706099788,0.6014346849009565
103.0,20.609093554142277,0.42050051525484733,0.011709270063238813,10.891674303317917,0.6014454408722715
104.0,20.612745314050503,0.42068147575516956,0.011703017061576922,10.891181620410006,0.6014564888686703
105.0,20.61639636623811,0.42086243775300575,0.011696766494007103,10.890689012353118,0.6014674956263875
106.0,20.620046710275986,0.4210434011727513,0.011690518389494428,10.890196479228665,0.6014784188512583
107.0,20.623696345735265,0.4212243659387877,0.011684272748145407,10.889704021118044,0.6014890477485292
108.0,20.627345272187316,0.42140533197551044,0.011678029570054213,10.889211638102632,0.6014994047190516
109.0,20.630993489203767,0.42158629920731205,0.011671788855302097,10.88871933026379,0.6015094984801315
110.0,20.63464099635649,0.4217672675585939,0.011665550603957053,10.888227097682856,0.6015195776879658
111.0,20.63828779321762,0.4219482369537471,0.011659314813573445,10.887734940441161,0.6015295898730652
112.0,20.641933879358163,0.42212920731704723,0.011653081465403097,10.887242858617752,0.6015397222872366
113.0,20.64557925434982,0.42231017857281034,0.011646850562366832,10.886750852292366,0.6015497529667196
114.0,20.649223917765475,0.4224911506454507,0.011640622114474725,10.886258921546288,0.6015597368593852
115.0,20.65286786917827,0.42267212345937333,0.011634396121811106,10.88576706646079,0.6015695387209158
116.0,20.656511108161595,0.42285309693899925,0.011628172584451504,10.885275287117121,0.6015783309638445
117.0,20.660153634289095,0.4230340710087459,0.01162195150246205,10.884783583596516,0.6015886578480875
118.0,20.663795447134664,0.4232150455930432,0.011615732875898973,10.884291955980185,0.601598622220504
119.0,20.66743654627246,0.4233960206163124,0.011609516704808233,10.883800404349325,0.6016073424764267
120.0,20.671076931276883,0.4235769960029869,0.01160330296617123,10.883308928784603,0.6016167958110196
121.0,20.674716601722597,0.42375797167750684,0.011597091671696666,10.882817529366918,0.6016273413465255
122.0,20.67835555718451,0.423938947564313,0.011590882833351595,10.88232620617741,0.6016374477580558
123.0,20.681993797237794,0.42411992358785183,0.011584676451147014,10.881834959297207,0.6016472534055567
124.0,20.68563132145787,0.4243008996725686,0.011578472525080657,10.881343788807412,0.6016568728526759
125.0,20.689268129420423,0.4244818757429257,0.011572271055136764,10.880852694789112,0.6016663513473008
126.0,20.692904220701394,0.4246628517233812,0.011566072041285753,10.880361677323375,0.6016757117986565
127.0,20.696539594876967,0.42484382753840233,0.01155987548348385,10.879870736491249,0.6016852686650412
128.0,20.70017425152361,0.425024803112459,0.011553681381672813,10.879379872373764,0.6016948582971802
129.0,20.703808190218012,0.42520577837003026,0.011547489735779662,10.878889085051929,0.6017045301469923
130.0,20.70744141053715,0.42538675323559927,0.011541300545716381,10.878398374606736,0.6017140575909129
131.0,20.711073912058254,0.4255677276336493,0.011535113811379642,10.877907741119152,0.6017233263931134
132.0,20.714705694358813,0.4257487014886799,0.011528929532650653,10.877417184670131,0.6017323121196693
133.0,20.718336757016562,0.42592967472519255,0.01152274770939481,10.876926705340603,0.6017412383345496
134.0,20.721967099609518,0.42611064726768816,0.011516568341461631,10.87643630321148,0.6017514715088388
135.0,20.725596721715938,0.4262916190406892,0.011510391427226468,10.875945978363639,0.6017621487727441
136.0,20.729225622913987,0.4264725899686547,0.011504216948902765,10.875455730877269,0.6017724921266184
137.0,20.732853802781804,0.42665355997602666,0.011498044892427322,10.874965560832027,0.6017828106693345
138.0,20.73648126089848,0.4268345289873426,0.011491875288260994,10.874475468308741,0.6017930908787913
139.0,20.74010799684335,0.4270154969271516,0.0114857081362537,10.873985453388212,0.6018031999695076
140.0,20.743734010196032,0.4271964637200057,0.011479543436239532,10.873495516151225,0.6018132271018116
141.0,20.747359300536402,0.42737742929046374,0.011473381188036796,10.873005656678544,0.6018233186198926
142.0,20.750983867444592,0.42755839356309727,0.011467221391447789,10.872515875050912,0.6018346257209489
143.0,20.754607710500682,0.4277393564624498,0.011461064038261989,10.872026171348532,0.6018449196806946
144.0,20.758230829284116,0.4279203179129823,0.01145490910618049,10.871536545650171,0.6018551033859031
145.0,20.76185322337586,0.42810127783929697,0.011448756624755292,10.871046998036533,0.6018649638983969
146.0,20.765474892357126,0.4282822361659942,0.011442606593765265,10.870557528588293,0.6018743472160506
147.0,20.769095835809416,0.4284631928176834,0.011436459012972671,10.870068137386111,0.6018835191204264
148.0,20.772716053314483,0.42864414771898746,0.011430313882122938,10.869578824510624,0.6018929904187241
149.0,20.776335544454355,0.42882510079453,0.011424171200944811,10.869089590042451,0.6019029368169647
150.0,20.779954308811334,0.4290060519689575,0.011418030969150327,10.868600434062188,0.6019131289509182
151.0,20.783572345967976,0.4291870011669012,0.011411893183747985,10.868111356650447,0.6019231667055921
152.0,20.787189655507117,0.42936794831302677,0.011405757843868061,10.86762235788782,0.6019331634630443
153.0,20.790806237011864,0.42954889333199425,0.011399624949185833,10.867133437854884,0.6019433999873078
154.0,20.7944220900656,0.4297298361484793,0.011393494499362639,10.866644596632192,0.601953327149408
155.0,20.798037214251966,0.42991077668715877,0.011387366494045665,10.866155834300276,0.6019614681221898
156.0,20.80165160915488,0.4300917148727284,0.011381240932868008,10.865667150939647,0.6019718076961255
157.0,20.805265274358536,0.43027265062988906,0.011375117815448869,10.865178546630796,0.6019815555691633
158.0,20.808878209447403,0.43045358388335336,0.011368997141393413,10.86469002145419,0.6019909810903746
159.0,20.81249041400622,0.4306345145578434,0.011362878877181643,10.864201575489949,0.6020003984911846
160.0,20.81610188762,0.4308154425780875,0.01135676302552908,10.863713208817895,0.6020098029066895
161.0,20.81971262987404,0.4309963678688286,0.011350649605021601,10.863224921518214,0.6020191238399425
162.0,20.823322640353904,0.43117729035482233,0.011344538624979894,10.862736713671287,0.6020283142975298
163.0,20.826931918645435,0.4313582099608322,0.011338430084979428,10.862248585357474,0.6020373307575905
164.0,20.830540464334746,0.4315391266116271,0.011332323984583623,10.861760536657114,0.6020460985224728
165.0,20.834148277008243,0.4317200402319949,0.011326220323343766,10.861272567650524,0.6020548863063674
166.0,20.8377553562526,0.4319009507467364,0.011320119100799275,10.860784678417996,0.6020639332964419
167.0,20.841361701654773,0.4320818580806501,0.011314020316477767,10.860296869039805,0.6020731588873764
168.0,20.844967312801998,0.4322627621585635,0.011307923969895283,10.859809139596203,0.6020825620801799
169.0,20.84857218928179,0.4324436629053024,0.011301830060556534,10.859321490167423,0.6020918680565083
170.0,20.852176330681953,0.43262456024570967,0.0112957385879551,10.858833920833668,0.6021011944270893
171.0,20.85577973658482,0.4328054541038455,0.011289649444813421,10.858346431672905,0.6021104129122975
172.0,20.859382406577435,0.4329863444043845,0.011283562694041066,10.8578590227642,0.6021193889551333
173.0,20.862984340248545,0.4331672310722181,0.01127747837346538,10.85737169418769,0.6021282418930346
174.0,20.86658553718719,0.4333481140322477,0.011271396482739294,10.856884446023479,0.6021376102067234
175.0,20.8701859969827,0.4335289932093895,0.011265317021514187,10.856397278351663,0.602147476071374
176.0,20.873785719224678,0.43370986852856636,0.011259239989439515,10.85591019125231,0.6021571405679401
177.0,20.877384703503044,0.4338907399147232,0.011253165347510547,10.85542318480502,0.6021668835892574
178.0,20.88098294940798,0.43407160729281175,0.01124709311773662,10.85493625908967,0.6021766242397104
179.0,20.88458045652998,0.434252470587804,0.01124102331113076,10.854449414186263,0.602186223562086
180.0,20.888177224459817,0.434433329724677,0.01123495592747136,10.853962650174786,0.6021956753094646
181.0,20.891773252788575,0.4346141846284306,0.011228890966539729,10.853475967135205,0.6022052394098868
182.0,20.895368541107608,0.43479503522407176,0.011222828425399274,10.852989365147467,0.6022148758363003
183.0,20.89896308900858,0.43497588143663096,0.011216768303723075,10.852502844291498,0.6022245443458599
184.0,20.902556896083432,0.43515672319114035,0.011210710601334634,10.852016404647209,0.6022342957175177
185.0,20.90614996192442,0.4353375604126548,0.011204655318061661,10.851530046294481,0.602244124749859
186.0,20.909742286124086,0.4355183930262467,0.011198602442117856,10.851043769312751,0.6022539084391677
187.0,20.913333868275256,0.43569922095699437,0.011192551972045925,10.850557573781394,0.6022634999489747
188.0,20.91692470797107,0.43588004412999887,0.011186503901607655,10.850071459780011,0.6022727684309307
189.0,20.920514804804952,0.43606086247036924,0.011180458245481749,10.849585427388364,0.6022816248756256
190.0,20.924104158370636,0.43624167590324103,0.01117441500863517,10.849099476686256,0.6022899443745898
191.0,20.927692768262126,0.43642248435374636,0.011168374190950361,10.848613607753467,0.6022979957527548
192.0,20.931280634073765,0.4366032877470552,0.011162335792310678,10.848127820669758,0.6023058171926295
193.0,20.934867755400155,0.43678408600834057,0.01115629981260039,10.847642115514864,0.6023135664685083
