k,PSNR,SSIM,mse,Log-Gradient,Angle
0.0,20.229860694117306,0.40191505161090957,0.0,10.942727552152892,0.5986436715566542
1.0,20.23300727299371,0.4020659410419703,0.010251242290564405,10.942302075425342,0.6002543080472375
2.0,20.23670271248284,0.40224489676737313,0.012216775878182594,10.941805570996108,0.6002890200056188
3.0,20.240423060382398,0.4024252543368417,0.012333486151322376,10.941305854471217,0.6003132699105183
4.0,20.24414567558125,0.40260578562659927,0.012343983516764486,10.940805810678585,0.6003319313697616
5.0,20.247868699740692,0.40278638317242593,0.012343031457049305,10.940305683623174,0.6003481553231343
6.0,20.25159187128665,0.4029670309217411,0.012340011116481997,10.939805510361024,0.6003655625318276
7.0,20.255315131342797,0.40314772497178986,0.012336386119590871,10.93930530040428,0.6003777148965277
8.0,20.25903846098048,0.40332846404194617,0.012332539310962176,10.938805056684002,0.600389674773787
9.0,20.262761854280953,0.4035092476318611,0.012328599101502469,10.938304780474528,0.600401488331635
10.0,20.266485308083688,0.4036900754088036,0.012324613445803734,10.937804472511766,0.6004129360653169
11.0,20.270208821147023,0.4038709472632161,0.012320601990519594,10.937304133216548,0.6004243338116795
12.0,20.273932392728632,0.40405186312097197,0.012316567306800455,10.936803762895737,0.6004357077722546
13.0,20.27765602224015,0.4042328229031907,0.012312517679326247,10.936303361801103,0.6004469406475826
14.0,20.281379709041293,0.4044138265218362,0.012308456973236953,10.935802930136935,0.6004581076121692
15.0,20.28510345273649,0.404594873913261,0.01230438371690865,10.935302468078017,0.6004692171020419
16.0,20.28882725291939,0.4047759650275935,0.012300307990742531,10.934801975728725,0.6004802798287674
17.0,20.292551109188416,0.4049570998153853,0.012296229695558695,10.93430145318342,0.6004913648066982
18.0,20.296275021124668,0.40513827823023374,0.012292144769219963,10.933800900538408,0.6005024844910358
19.0,20.299998988343656,0.40531950022492275,0.012288058809094515,10.93330031786051,0.600513580504346
20.0,20.303723010462953,0.4055007657508551,0.01228397214851888,10.932799705213396,0.600524813487633
21.0,20.30744708710128,0.4056820747595147,0.012279883571705532,10.932299062670376,0.600536060396891
22.0,20.311171217878158,0.40586342720243795,0.012275794452402783,10.931798390297747,0.6005472374461799
23.0,20.31489540241361,0.4060448230311671,0.012271705277406402,10.931297688151052,0.6005584969267291
24.0,20.318619640327956,0.40622626219724617,0.012267616428220846,10.930796956287653,0.6005697922042331
25.0,20.322343931237054,0.4064077446520762,0.012263527797590918,10.930296194766443,0.6005810968703413
26.0,20.326068274749165,0.40658927034685594,0.012259438744493315,10.929795403647747,0.6005923618054666
27.0,20.32979267048525,0.4067708392330229,0.012255348743027177,10.9292945829891,0.6006036270773641
28.0,20.333517118066148,0.4069524512619789,0.01225125906603567,10.928793732846799,0.600614878470724
29.0,20.3372416171125,0.40713410638505576,0.012247169828321785,10.928292853276687,0.6006260945679823
30.0,20.340966167244762,0.40731580455352817,0.012243081036084652,10.92779194433445,0.6006373744599395
31.0,20.344690768083126,0.4074975457186117,0.012238992693915676,10.927291006075654,0.6006486592201944
32.0,20.34841541924752,0.4076793298314443,0.012234904636582182,10.926790038551536,0.6006599091150634
33.0,20.352140120357575,0.40786115684310537,0.012230816971695119,10.926289041816212,0.6006711934525636
34.0,20.355864871026334,0.40804302670391857,0.012226729260363495,10.925788015929674,0.6006824546830586
35.0,20.359589670860593,0.4082249393639393,0.01222264112656467,10.925286960950448,0.6006938531515209
36.0,20.36331451947951,0.4084068947740554,0.012218553041967246,10.924785876935918,0.6007053149941373
37.0,20.36703941650194,0.40858889288508937,0.012214465114035924,10.924284763944517,0.600716689450577
38.0,20.370764361546406,0.40877093364779205,0.012210377400403503,10.923783622031905,0.6007280213806356
39.0,20.374489354231123,0.4089530170128292,0.012206289815142385,10.923282451253955,0.6007394514545018
40.0,20.378214394173938,0.4091351429308012,0.012202202638650277,10.922781251665885,0.6007508566851907
41.0,20.381939480992372,0.40931731135223287,0.012198115872132114,10.92228002332295,0.6007622314286523
42.0,20.385664614303607,0.4094995222275702,0.01219402951663181,10.92177876628044,0.6007735159159924
43.0,20.38938979372448,0.4096817755071876,0.012189943573060077,10.921277480593695,0.6007847070274442
44.0,20.39311501887147,0.4098640711413814,0.012185858042217458,10.92077616631809,0.6007957654268421
45.0,20.39684028936073,0.4100464090803739,0.012181772924813794,10.920274823509057,0.6008066963893514
46.0,20.400565604808033,0.41022878927430906,0.012177688221484195,10.919773452222074,0.6008176152194444
47.0,20.40429096482882,0.4104112116732577,0.012173603932802535,10.91927205251267,0.6008283864673282
48.0,20.408016369038187,0.4105936762272158,0.012169520059292668,10.91877062443643,0.6008390061556278
49.0,20.411741817050846,0.4107761828860939,0.012165436601437755,10.918269168048992,0.6008495456520974
50.0,20.415467308481183,0.41095873159974,0.012161353559688356,10.917767683406051,0.6008601934970786
51.0,20.419192842943215,0.4111413223179137,0.012157270934469123,10.917266170563362,0.6008718368985365
52.0,20.422918420050607,0.4113239549903076,0.012153188726184184,10.91676462957673,0.6008834160480812
53.0,20.42664403941666,0.41150662956653467,0.012149106935222379,10.916263060502029,0.6008947960856968
54.0,20.430369700654335,0.41168934599612456,0.01214502556196092,10.915761463395183,0.6009060970106372
55.0,20.434095403375977,0.4118721042284874,0.01214094460420272,10.915259838312185,0.6009173669772007
56.0,20.437821147181154,0.4120549042102741,0.012136863927819748,10.914758185309044,0.6009286360889767
57.0,20.441546931681902,0.41223774589081036,0.012132783669623655,10.914256504441825,0.6009398331538726
58.0,20.445272756489906,0.4124206292193609,0.012128703643903855,10.913754795765211,0.6009511158327175
59.0,20.448998621216496,0.4126035541451048,0.012124624038690917,10.913253059335407,0.6009624379721001
60.0,20.45272452547261,0.4127865206171508,0.012120544854567233,10.912751295208675,0.6009736637038461
61.0,20.456450468868873,0.4129695285845269,0.012116466092115441,10.912249503441346,0.6009848131107519
62.0,20.460176451015506,0.4131525779961876,0.012112387751919316,10.91174768408981,0.6009958314141318
63.0,20.463902471522402,0.41333566880100875,0.012108309834564573,10.911245837210522,0.6010068480563783
64.0,20.467628529999068,0.4135188009477928,0.012104232340639351,10.910743962859998,0.6010180942082801
65.0,20.47135462605468,0.41370197438526213,0.012100155270734806,10.910242061094817,0.601029383019757
66.0,20.47508075929802,0.41388518906207006,0.012096078625445384,10.909740131971622,0.6010407055207568
67.0,20.478806929337527,0.41406844492678063,0.012092002405368882,10.909238175547124,0.6010523198698242
68.0,20.48253313578128,0.41425174192789455,0.012087926611106603,10.90873619187809,0.6010641020278965
69.0,20.486259378236987,0.4144350800138299,0.012083851243263187,10.908234181021355,0.6010758373061578
70.0,20.489985656311983,0.41461845913293355,0.012079776302446485,10.907732143033819,0.6010874024950209
71.0,20.493711969613276,0.4148018792334633,0.012075701789267325,10.907230077972445,0.6010983162370037
72.0,20.497438317747473,0.4149853402636176,0.01207162770433927,10.906727985894257,0.6011113848980286
73.0,20.50116470032083,0.4151688421715019,0.01206755404827809,10.90622586685635,0.6011239990844907
74.0,20.50489111693925,0.41535238490515963,0.012063480821701398,10.905723720915876,0.6011357254752654
75.0,20.508617567208262,0.415535968412553,0.012059408025228271,10.905221548130056,0.6011479123387592
76.0,20.512344050732946,0.41571959264156294,0.012055335656915212,10.904719348556114,0.6011604672190508
77.0,20.516070567116028,0.41590325753997587,0.012051263660595274,10.904217122249971,0.6011736089984843
78.0,20.519797115961993,0.41608696305553083,0.012047192094347221,10.903714869269004,0.6011865747122471
79.0,20.52352369687492,0.41627070913587755,0.012043120958783382,10.903212589670659,0.6011980571238346
80.0,20.527250309458562,0.4164544957285981,0.012039050254514728,10.902710283512445,0.6012086269461044
81.0,20.530976953316276,0.41663832278119894,0.012034979982150794,10.902207950851935,0.6012194797807848
82.0,20.53470362805107,0.41682219024110645,0.012030910142299787,10.90170559174677,0.6012316113609589
83.0,20.538430333265584,0.41700609805567773,0.012026840735568159,10.901203206254655,0.6012432231248589
84.0,20.5421570685621,0.41719004617218364,0.012022771762560216,10.900700794433355,0.6012544642414501
85.0,20.545883833542533,0.41737403453782435,0.012018703223877722,10.90019835634071,0.6012654072820338
86.0,20.549610627808413,0.41755806309972776,0.012014635120119226,10.899695892034618,0.6012760290786775
87.0,20.553337450960946,0.41774213180493897,0.01201056745187958,10.899193401573044,0.601286293521221
88.0,20.557064302600935,0.41792624060042965,0.012006500219749089,10.898690885014021,0.6012964844846027
89.0,20.560791182328835,0.4181103894330953,0.012002433424313159,10.898188342415645,0.6013097956990697
90.0,20.564518089744723,0.41829457824975685,0.011998367066151285,10.89768577383608,0.6013194267330967
91.0,20.56824502444833,0.4184788069971561,0.011994301145836595,10.897183179333556,0.6013297994904971
92.0,20.57197198603901,0.41866307562196287,0.011990235663935126,10.896680558966363,0.601340750735099
93.0,20.57569897411574,0.4188473840707714,0.011986170621004998,10.896177912792867,0.6013522643843248
94.0,20.579425988277155,0.4190317322900914,0.011982106017595837,10.895675240871489,0.601363446816609
95.0,20.583153028121504,0.4192161202263666,0.01197804185424808,10.895172543260726,0.6013742570382615
96.0,20.586880093246673,0.4194005478259644,0.011973978131492279,10.894669820019134,0.6013848211345431
97.0,20.590607183250192,0.4195850150351714,0.011969914849848363,10.894167071205342,0.6013950891427092
98.0,20.594334297729212,0.4197695218002006,0.011965852009825188,10.893664296878036,0.6014050861233226
99.0,20.598061436280513,0.41995406806718555,0.011961789611919581,10.89316149709598,0.6014148825484367
100.0,20.601788598500534,0.42013865378219223,0.011957727656616022,10.892658671917994,0.6014248671909391
101.0,20.605515783985314,0.4203232788912068,0.011953666144385797,10.892155821402971,0.6014351835721385
102.0,20.60924299233055,0.42050794334013886,0.011949605075686619,10.891652945609868,0.6014461919497236
103.0,20.612970223131562,0.42069264707482223,0.011945544450961808,10.89115004459771,0.6014574707797594
104.0,20.61669747598179,0.4208773900408711,0.011941484222382656,10.890647118421423,0.6014687111973495
105.0,20.620424750475713,0.4210621721839587,0.011937424430377042,10.890144167139777,0.6014798470990094
106.0,20.624152046207588,0.42124699344970057,0.011933365079987239,10.889641190812014,0.6014906747962544
107.0,20.627879362771292,0.42143185378363385,0.011929306171675657,10.88913818949745,0.6015012081913279
108.0,20.631606699760358,0.4216167531312265,0.0119252477058918,10.888635163255465,0.6015115059679548
109.0,20.635334056767945,0.4218016914378618,0.011921189683071768,10.88813211214551,0.6015218228953311
110.0,20.639061433386846,0.42198666864885676,0.01191713210122319,10.887629036227107,0.6015320660560823
111.0,20.64278882920926,0.4221716847094262,0.01191307495463186,10.887125935559473,0.6015424227512148
112.0,20.646516243825136,0.42235673956453074,0.011909018224358714,10.886622810198777,0.601552670087537
113.0,20.65024367682618,0.4225418331592645,0.011904961930077968,10.886119660204761,0.6015628871992932
114.0,20.653971127803743,0.4227269654386401,0.011900906072236081,10.885616485637236,0.6015726719250201
115.0,20.657698596348794,0.4229121363475967,0.011896850651270668,10.885113286556077,0.6015816177959205
116.0,20.661426082051957,0.4230973458310028,0.011892795667609757,10.884610063021237,0.6015927355937883
117.0,20.665153584503464,0.42328259383365235,0.011888741121671473,10.884106815092728,0.6016022707226284
118.0,20.668881103293227,0.42346788030025834,0.01188468701386361,10.883603542830638,0.601611053979784
119.0,20.672608638010743,0.42365320517546695,0.011880633344582935,10.883100246295124,0.6016216743143843
120.0,20.676336188245173,0.42383856840384354,0.011876580084570865,10.882596925545734,0.6016322800391124
121.0,20.6800637535853,0.4240239699298856,0.011872527259642466,10.882093580642657,0.6016424686154035
122.0,20.683791333619553,0.4242094096980107,0.011868474874933609,10.881590211646262,0.601652428556835
123.0,20.687518927935994,0.4243948876525636,0.011864422930803604,10.881086818616986,0.6016622215779838
124.0,20.691246536122293,0.4245804037378153,0.011860371427597896,10.880583401615329,0.6016718643112066
125.0,20.694974157765785,0.4247659578979633,0.011856320365647828,10.88007996070187,0.6016815593969868
126.0,20.698701792453438,0.4249515500771295,0.011852269745270295,10.879576495937254,0.6016914262987113
127.0,20.702429439771834,0.42513718021936286,0.01184821956676743,10.87907300738219,0.6017013609834702
128.0,20.70615709930721,0.42532284826863714,0.011844169830426172,10.87856949509747,0.6017111894861594
129.0,20.70988477064541,0.4255085541688508,0.01184012053651821,10.878065959143939,0.6017208220270265
130.0,20.713612453371937,0.42569429786382873,0.01183607168529945,10.877562399582526,0.6017301234376732
131.0,20.717340147071926,0.42588007929732224,0.011832023277009884,10.877058816474221,0.6017393020595667
132.0,20.72106785133013,0.42606589841301296,0.011827975311873332,10.876555209880088,0.6017494519934171
133.0,20.724795565730947,0.4262517551544991,0.011823927790097262,10.876051579861262,0.6017605054436482
134.0,20.72852328985841,0.4264376494653117,0.011819880710081944,10.87554792647892,0.6017711825757344
135.0,20.732251023295913,0.42662358128886985,0.011815834060887594,10.875044249793875,0.6017818158028069
136.0,20.73597876562596,0.4268095505684424,0.011811787817596923,10.87454054986602,0.601792423555438
137.0,20.739706516431507,0.4269955572473428,0.011807742015990972,10.874036826756761,0.6018028473865469
138.0,20.743434275295147,0.4271816012688092,0.01180369665627532,10.873533080527572,0.6018131694021299
139.0,20.74716204179911,0.42736768257600577,0.011799651738639175,10.873029311239998,0.6018235100238153
140.0,20.75088981552526,0.4275538011120275,0.011795607263255462,10.872525518955653,0.6018351668347722
141.0,20.7546175960551,0.42773995681988897,0.011791563230280563,10.872021703736225,0.6018458034058826
142.0,20.758345382969452,0.4279261496425086,0.01178751963319021,10.871517865643016,0.6018562603492756
143.0,20.76207317584778,0.4281123795226278,0.011783476448378289,10.871014004735803,0.6018663631522413
144.0,20.76580097427052,0.42829864640304893,0.011779433706031343,10.870510121076505,0.6018759953421312
145.0,20.76952877781771,0.42848495022649596,0.011775391406279844,10.870006214727102,0.6018855180012405
146.0,20.773256586069042,0.4286712909356247,0.011771349549236898,10.869502285749652,0.6018952806424502
147.0,20.776984398603837,0.42885766847301515,0.011767308134998173,10.868998334206283,0.6019057660734761
148.0,20.780712215001053,0.4290440827811701,0.011763267163641889,10.868494360159197,0.6019162283677423
149.0,20.784440034839285,0.42923053380252535,0.011759226633007016,10.867990363670689,0.6019265617316544
150.0,20.788167857696752,0.42941702147943905,0.011755186542037919,10.867486344803142,0.6019369122704841
151.0,20.791895683151314,0.42960354575419735,0.011751146890772467,10.866982303619011,0.6019476683210822
152.0,20.795623510780466,0.4297901065690106,0.011747107679233572,10.866478240180822,0.6019570337967285
153.0,20.799351340161337,0.42997670386602493,0.011743068907429297,10.865974154551171,0.6019663521996523
154.0,20.80307917087069,0.43016333758729614,0.011739030575352664,10.865470046792728,0.6019768279296766
155.0,20.806807002484916,0.43035000767482695,0.011734992682981712,10.864965916968233,0.6019867117186729
156.0,20.81053483458006,0.43053671407053246,0.011730955230279604,10.864461765140497,0.6019964364734576
157.0,20.81426266673177,0.4307234567162588,0.011726918213105198,10.86395759137236,0.6020061738809489
158.0,20.81799049851537,0.43091023555378344,0.011722881602033549,10.86345339572643,0.6020158640958674
159.0,20.821718329505785,0.43109705052480374,0.01171884540607605,10.862949178265163,0.6020254463297835
160.0,20.825446159277586,0.43128390157095137,0.011714809639089416,10.86244493905144,0.602034801307314
161.0,20.829173987404992,0.4314707886337737,0.011710774310124428,10.861940678148429,0.6020438783128428
162.0,20.83290181346184,0.43165771165476313,0.011706739419092232,10.86143639561937,0.6020528813804679
163.0,20.836629637021616,0.4318446705753211,0.011702704965890764,10.86093209152758,0.6020621561746969
164.0,20.840357457657426,0.4320316653367884,0.011698670950404702,10.860427765936443,0.6020716893104141
165.0,20.84408527494204,0.43221869588042905,0.011694637372505569,10.859923418909418,0.6020814201695096
166.0,20.84781308844783,0.4324057621474351,0.011690604232051708,10.859419050510036,0.6020910529875548
167.0,20.851540897746833,0.432592864078923,0.011686571528888768,10.858914660801904,0.6021007021494127
168.0,20.855268702410715,0.4327800016159397,0.011682539262849631,10.858410249848697,0.6021102535914464
169.0,20.858996502008846,0.4329671746991943,0.011678507404512383,10.857905817713595,0.602119539715673
170.0,20.862724296106705,0.4331543832688333,0.011674475870609801,10.857401364457601,0.6021286699295347
171.0,20.866452084274975,0.433341627265695,0.011670444767931372,10.856896890144599,0.6021383701520568
172.0,20.87017986608395,0.4335289066305464,0.011666414096447439,10.856392394838545,0.6021485599878471
173.0,20.87390764110362,0.43371622130407994,0.011662383856126042,10.855887878603472,0.6021585924620108
174.0,20.877635408903565,0.4339035712269203,0.01165835404693265,10.855383341503485,0.6021687162809822
175.0,20.881363169053024,0.43409095633962097,0.011654324653315933,10.854878783602594,0.6021787746799224
176.0,20.8850909211209,0.43427837658266055,0.011650295651708402,10.854374204964618,0.6021886846693041
177.0,20.888818664675703,0.434465831896448,0.01164626707608686,10.85386960565389,0.6021984549504324
178.0,20.892546399285628,0.4346533222213211,0.011642238926547694,10.85336498573481,0.6022084893931878
179.0,20.896274124518484,0.4348408474975483,0.01163821120048668,10.852860345271868,0.602218499741533
180.0,20.90000183994173,0.4350284076653221,0.0116341838977718,10.852355684329623,0.602228560496373
181.0,20.903729545122477,0.4352160026647689,0.011630157018542076,10.85185100297271,0.6022387653119363
182.0,20.907457239627476,0.43540363243593944,0.011626130562940522,10.85134630126584,0.6022489944492905
183.0,20.911184923023114,0.4355912969188136,0.011622104529723775,10.850841579273744,0.6022590590633875
184.0,20.91491259487544,0.4357789960533063,0.01161807889618467,10.850336837060363,0.6022687827172333
185.0,20.91864025475012,0.43596672977925605,0.01161405367694522,10.84983207469052,0.6022780829638706
186.0,20.922367902212496,0.436154498036428,0.011610028867362935,10.84932729222906,0.6022869825604613
187.0,20.926095536827525,0.43634230076452596,0.011606004483019792,10.848822489741094,0.6022954688906151
188.0,20.929823158159834,0.43653013790316875,0.011601980524114593,10.848317667291811,0.6023036783986623
189.0,20.93355076577367,0.4367180093919196,0.011597956990847041,10.847812824946475,0.6023117632965961
190.0,20.937278359232945,0.4369059151702592,0.011593933883417229,10.847307962770424,0.602319910783395
191.0,20.941005938101206,0.4370938551776035,0.011589911202025462,10.846803080829078,0.6023285588796815
192.0,20.94473350194165,0.43728182935329535,0.011585888946872078,10.846298179187928,0.6023381050977241
