k,PSNR,SSIM,mse,Log-Gradient,Angle
0.0,20.43662561931375,0.4652361644423944,0.0,10.955099302441752,0.5965892684489572
1.0,20.439735385159583,0.4653822085344957,0.010116802775008244,10.954690872815553,0.5983856848174266
2.0,20.443404984706625,0.46555779912476974,0.012104856736494462,10.954213785872385,0.5984103292657014
3.0,20.447102760759943,0.4657350765456107,0.012236287505900053,10.953733297048572,0.5984278767471477
4.0,20.45080313983485,0.46591254815711397,0.012249232589498659,10.953252463702096,0.5984450401667946
5.0,20.45450384707567,0.46609007318627366,0.01224875977917326,10.952771562324132,0.598461497921817
6.0,20.458204534586514,0.46626762931433247,0.01224570063543474,10.95229063809028,0.5984734109755712
7.0,20.4619051299769,0.4664452117412528,0.012241966791664727,10.951809701487798,0.5984838108434445
8.0,20.465605611280047,0.46662281898375424,0.012237977576006915,10.951328756153599,0.5984924536383656
9.0,20.46930596988829,0.4668004505155718,0.012233861644233518,10.950847803891694,0.5985038685178755
10.0,20.47300620238601,0.4669781060956049,0.012229689358075793,10.950366845561087,0.5985144336238107
11.0,20.47670630751628,0.4671557856189479,0.012225487527934923,10.949885881660459,0.5985250553983648
12.0,20.480406283952238,0.46733348896683075,0.012221258770412826,10.94940491255452,0.5985353523244356
13.0,20.484106130485266,0.46751121604071044,0.012217010750851177,10.948923938499824,0.5985454124903161
14.0,20.487805846276647,0.467688966752739,0.012212755686346978,10.948442959670048,0.5985553210022309
15.0,20.49150543053543,0.4678667410252002,0.012208493349956172,10.947961976203278,0.5985650802034091
16.0,20.495204882635626,0.46804453879319147,0.012204228319593932,10.947480988208618,0.5985747033258059
17.0,20.49890420196647,0.46822235999284767,0.012199956910014345,10.946999995817931,0.5985843028585647
18.0,20.502603387937583,0.4684002045611883,0.012195677107996305,10.946518999176476,0.5985938317863456
19.0,20.50630243995893,0.46857807243577326,0.012191395802924498,10.94603799837767,0.5986032139382431
20.0,20.51000135744271,0.4687559635543727,0.01218711501828688,10.945556993501196,0.5986126113266143
21.0,20.51370013980265,0.4689338778548931,0.012182832609989702,10.945075984623362,0.5986221078661843
22.0,20.517398786453455,0.4691118152753357,0.01217854909951794,10.944594971831808,0.5986316450358034
23.0,20.52109729681043,0.46928977575373954,0.012174266134594271,10.944113955201558,0.5986411177277244
24.0,20.524795670281357,0.46946775922741724,0.012169983402470812,10.943632934809878,0.5986504973686625
25.0,20.528493906266757,0.4696457656329714,0.01216570054370248,10.943151910736512,0.5986598280250072
26.0,20.53219200418317,0.4698237949084958,0.012161417318306193,10.942670883060563,0.5986691857096728
27.0,20.53588996344701,0.47000184699205905,0.012157133690718991,10.942189851857458,0.5986785849681424
28.0,20.539587783474495,0.47017992182168716,0.012152849912660706,10.941708817201048,0.5986879536846702
29.0,20.543285463681563,0.4703580193353632,0.012148565974902822,10.941227779163695,0.5986972633424106
30.0,20.546983003483863,0.4705361394710165,0.012144281849743279,10.940746737815767,0.598706455938039
31.0,20.550680402296674,0.4707142821665302,0.012139998172948425,10.940265693227946,0.5987156353363755
32.0,20.55437765953489,0.47089244735972247,0.01213571506681704,10.939784645471141,0.5987247751489345
33.0,20.55807477461301,0.47107063498835483,0.0121314325342458,10.939303594616185,0.5987338960851636
34.0,20.561771746935595,0.4712488449890491,0.012127150318561864,10.938822540735636,0.5987431073362222
35.0,20.565468575913698,0.47142707729914773,0.012122868600619108,10.938341483900722,0.598752300395914
36.0,20.569165260960766,0.4716053318562414,0.012118586751014685,10.93786042418216,0.5987614218835827
37.0,20.572861801490863,0.471783608598094,0.012114305377815705,10.937379361650873,0.5987705295916032
38.0,20.576558196922043,0.47196190746336547,0.012110024391873512,10.936898296378663,0.5987795163050738
39.0,20.580254446666416,0.4721402283894469,0.012105743532920415,10.93641722843981,0.5987884041102312
40.0,20.583950550135622,0.4723185713136675,0.012101463198159398,10.935936157905193,0.5987973207410212
41.0,20.587646506740846,0.47249693617329186,0.012097183424775693,10.935455084845406,0.598806215302725
42.0,20.59134231589278,0.47267532290551273,0.012092904212487382,10.93497400933107,0.5988149985689638
43.0,20.59503797700166,0.4728537314474634,0.012088625560829722,10.934492931432843,0.5988238135978008
44.0,20.598733489477212,0.47303216173620166,0.012084347469184102,10.93401185122142,0.5988325887478753
45.0,20.602428852728693,0.473210613708725,0.01208006993680253,10.933530768767534,0.5988413561466361
46.0,20.606124066164888,0.47338908730195933,0.012075792962828466,10.933049684141968,0.5988502047787011
47.0,20.60981912919409,0.47356758245276737,0.01207151654631459,10.932568597415544,0.5988590636633154
48.0,20.613514041224093,0.4737460990979437,0.01206724068623786,10.932087508659134,0.5988678770586001
49.0,20.617208801662233,0.47392463717420696,0.012062965381512619,10.931606417943657,0.5988766107716386
50.0,20.62090340991533,0.47410319661822703,0.01205869063100184,10.931125325340084,0.5988856508310314
51.0,20.624597865389735,0.4742817773665868,0.012054416433526949,10.930644230919436,0.5988949000762255
52.0,20.628292167491313,0.4744603793558151,0.012050142617760315,10.930163134749451,0.5989043348607369
53.0,20.631986315625426,0.47463900252236807,0.012045869348799275,10.929682036901248,0.598913698047143
54.0,20.635680309196967,0.47481764680263416,0.012041596626631608,10.929200937446016,0.5989230113898272
55.0,20.639374147610322,0.4749963121329365,0.01203732426724582,10.928719836452743,0.5989323753289968
56.0,20.643067830269402,0.4751749984495339,0.012033052449017648,10.928238733992703,0.598941977321304
57.0,20.64676135657762,0.47535370568861257,0.012028781078831707,10.927757630136735,0.5989521473368254
58.0,20.650454725937905,0.4755324337862938,0.012024510075721997,10.927276524955442,0.5989620254327689
59.0,20.65414793775269,0.47571118267863355,0.012020239294043139,10.926795418520358,0.5989717935816213
60.0,20.657840991423942,0.47588995230162334,0.012015969034247695,10.926314310903075,0.5989811943926807
61.0,20.6615338863531,0.47606874259117654,0.012011699322154437,10.92583320217516,0.5989898523404689
62.0,20.665226621941144,0.47624755348315356,0.012007430157424425,10.925352092408232,0.5989982282117166
63.0,20.668919197588572,0.47642638491334344,0.012003161419932434,10.92487098167448,0.5990067535094291
64.0,20.672611612695366,0.4766052368174609,0.011998893167937695,10.92438987004589,0.5990154702662038
65.0,20.676303866661062,0.4767841091311679,0.011994625466697535,10.923908757594226,0.5990241598085723
66.0,20.679995958884668,0.47696300179004786,0.011990358316117935,10.923427644391316,0.5990329065384014
67.0,20.683687888764737,0.47714191472962325,0.011986091716103743,10.922946530509044,0.5990415818392966
68.0,20.68737965569932,0.47732084788535195,0.011981825666559576,10.922465416019351,0.5990501420162881
69.0,20.691071259085984,0.47749980119262075,0.0119775601673904,10.921984300994241,0.5990586387725786
70.0,20.694762698321814,0.4776787745867554,0.011973295218502485,10.921503185505776,0.599067073846166
71.0,20.698453972803396,0.4778577680030102,0.011969030819804076,10.921022069626073,0.5990753938754773
72.0,20.702145081926847,0.4780367813765771,0.011964766971205956,10.920540953427313,0.5990834722013721
73.0,20.705836025085745,0.4782158146425832,0.011960503618356594,10.920059836980016,0.5990913082447875
74.0,20.709526801674976,0.47839486773609047,0.011956240767000975,10.919578720356437,0.5990990717779935
75.0,20.713217411089225,0.47857394059209163,0.01195197842412462,10.91909760362913,0.5991066793876559
76.0,20.716907852722688,0.4787530331455172,0.011947716636562732,10.918616486870455,0.5991145992001468
77.0,20.7205981259691,0.4789321453312317,0.011943455404262435,10.918135370152836,0.599122730865986
78.0,20.72428823022169,0.47911127708403006,0.011939194727171271,10.91765425354875,0.599130817596215
79.0,20.727978164873207,0.47929042833864804,0.011934934605237384,10.917173137130742,0.5991385785852906
80.0,20.73166792931594,0.4794695990297532,0.011930675038409513,10.916692020971414,0.5991461554603333
81.0,20.735357522941644,0.479648789091946,0.011926416026637169,10.916210905143426,0.5991547228711295
82.0,20.739046945141656,0.47982799845976354,0.01192215756987081,10.915729789719503,0.5991643533682574
83.0,20.742736195306772,0.4800072270676774,0.011917899668061926,10.915248674772426,0.599172885894452
84.0,20.746425272827345,0.48018647485009636,0.011913642321163303,10.91476756037504,0.5991807448455383
85.0,20.75011417709323,0.48036574174136265,0.011909385529129079,10.914286446600247,0.5991881738366529
86.0,20.7538029074938,0.48054502767575275,0.011905129291914876,10.913805333521012,0.5991952377928111
87.0,20.757491463417942,0.48072433258747754,0.01190087360429832,10.913324221210384,0.599201427654957
88.0,20.76117984425408,0.4809036564106866,0.0118966184647457,10.912843109741488,0.5992082927942405
89.0,20.76486804939013,0.48108299907946184,0.011892363873288816,10.9123619991875,0.5992181831046167
90.0,20.76855607821356,0.4812623605278248,0.011888109829968326,10.911880889621656,0.5992264009381724
91.0,20.772243930111316,0.4814417406897262,0.011883856334833763,10.91139978111726,0.5992341819923825
92.0,20.775931604469903,0.48162113949906,0.011879603387943659,10.910918673747666,0.5992416273924456
93.0,20.77961910067532,0.4818005568896477,0.011875350989365475,10.910437567586293,0.599248928458683
94.0,20.783306418113096,0.4819799927952542,0.011871099139175821,10.909956462706615,0.5992568131030775
95.0,20.786993556168284,0.48215944714957715,0.0118668478374603,10.90947535918217,0.5992648958996704
96.0,20.79068051422544,0.48233891988624783,0.011862597047482383,10.908994257086539,0.5992730646992126
97.0,20.794367291668667,0.4825184109388358,0.011858346782161387,10.90851315649335,0.5992814422992253
98.0,20.798053887881572,0.4826979202408513,0.011854097065338659,10.908032057476312,0.5992900219651979
99.0,20.80174030224727,0.4828774477257309,0.01184984789717582,10.907550960109182,0.5992986629984401
100.0,20.805426534148435,0.4830569933268556,0.011845599277843557,10.907069864465779,0.599307260987619
101.0,20.809112582967227,0.48323655697754164,0.011841351207521672,10.906588770619988,0.5993158020346225
102.0,20.812798448085342,0.4834161386110385,0.011837103683873298,10.906107678645755,0.5993241559165013
103.0,20.816484128884,0.48359573816053447,0.01183285670626178,10.905626588617096,0.5993323539564085
104.0,20.820169624743944,0.4837753555591573,0.01182861027499756,10.905145500608084,0.5993403705632335
105.0,20.823854935045432,0.48395499073996495,0.011824364386179146,10.904664414692824,0.5993483484378059
106.0,20.827540059168253,0.4841346436359551,0.011820119040262495,10.904183330945488,0.5993574327509991
107.0,20.83122499649171,0.4843143141800678,0.011815874237725059,10.903702249440293,0.5993672841233401
108.0,20.834909746394636,0.48449400230517514,0.011811629979065152,10.903221170251529,0.5993766700388826
109.0,20.838594308255388,0.4846737079440812,0.01180738626230975,10.90274009345355,0.5993855705950698
110.0,20.842278681451845,0.48485343102953915,0.01180314308439761,10.902259019120802,0.5993942812020195
111.0,20.845962865361404,0.4850331714942299,0.011798900436227899,10.90177794732767,0.599403041159592
112.0,20.849646859361005,0.4852129292707783,0.011794658296320844,10.901296878148353,0.5994115145133717
113.0,20.853330662827084,0.4853927042917405,0.011790416698212899,10.900815811657473,0.5994197380804153
114.0,20.85701427513563,0.4855724964896138,0.011786175609400942,10.900334747928909,0.5994285908534422
115.0,20.860697695662132,0.4857523057968365,0.011781935053919619,10.899853687037156,0.5994376784621134
116.0,20.864380923781624,0.4859321321457775,0.011777695042928209,10.899372629057021,0.5994467844259502
117.0,20.868063958868657,0.486111975468747,0.011773455577198012,10.898891574063365,0.5994552582819413
118.0,20.8717468002973,0.486291835697996,0.011769216657517192,10.898410522131108,0.5994632841547186
119.0,20.875429447441167,0.4864717127657079,0.011764978284689939,10.897929473335228,0.5994712803006529
120.0,20.879111899673376,0.48665160660400986,0.011760740459535705,10.897448427750762,0.599479173514296
121.0,20.882794156366593,0.486831517144964,0.011756503182888125,10.8969673854528,0.5994869922954403
122.0,20.886476216893,0.48701144432057103,0.011752266455594344,10.896486346516491,0.5994948375876008
123.0,20.890158080624307,0.48719138806277046,0.011748030278513902,10.89600531101704,0.5995026911773064
124.0,20.893839746931743,0.48737134830344253,0.011743794652517842,10.895524279029715,0.5995111715127236
125.0,20.89752121518608,0.48755132497440307,0.011739559578487746,10.89504325062983,0.599519659892542
126.0,20.90120248475762,0.48773131800740566,0.0117353250573147,10.894562225892765,0.5995280100310575
127.0,20.90488355501617,0.48791132733414805,0.011731091087697708,10.894081204893935,0.5995362691349649
128.0,20.90856442533109,0.4880913528862616,0.01172685767012559,10.893600187708804,0.5995444474286958
129.0,20.912245095071253,0.48827139459532115,0.01172262480552347,10.8931191744129,0.5995526567734994
130.0,20.915925563605068,0.48845145239283605,0.011718392479360492,10.892638165080394,0.599560864317724
131.0,20.919605830300473,0.4886315262102587,0.01171416069164678,10.892157159785542,0.5995691266494528
132.0,20.923285894524923,0.4888116159789784,0.011709929458217529,10.891676158604044,0.5995773896768518
133.0,20.92696575564542,0.4889917216303253,0.011705698780051918,10.891195161611657,0.5995857307398965
134.0,20.93064541302848,0.48917184309556694,0.011701468658132437,10.890714168884195,0.5995939562117731
135.0,20.934324866040157,0.48935198030591387,0.011697239093443891,10.890233180497525,0.5996018533776472
136.0,20.938004114046045,0.48953213319251393,0.011693010086972098,10.889752196527578,0.5996095760700069
137.0,20.941683156411244,0.4897123016864569,0.011688781635169456,10.88927121705032,0.5996176245698932
138.0,20.945361992500406,0.4898924857187679,0.01168455373801474,10.888790242141779,0.599625673892896
139.0,20.94904062167771,0.49007268522041975,0.011680326396559845,10.888309271878033,0.5996339778401124
140.0,20.952719043306864,0.490252900122316,0.01167609961185842,10.887828306335216,0.5996428770841886
141.0,20.9563972567511,0.4904331303553096,0.011671873384964636,10.88734734558952,0.599651794804528
142.0,20.960075261373202,0.4906133758501848,0.011667647716931823,10.886866389717191,0.5996604087977804
143.0,20.96375305653546,0.49079363653767505,0.011663422608810961,10.886385438794532,0.5996688057024983
144.0,20.967430641599726,0.4909739123484476,0.011659198061649433,10.8859044928979,0.5996769819900772
145.0,20.971108015927364,0.4911542032131136,0.01165497407648948,10.885423552103708,0.5996850634649493
146.0,20.974785178879273,0.49133450906222703,0.01165075065348239,10.884942616488411,0.5996930042558806
147.0,20.978462129815895,0.4915148298262731,0.011646527793350864,10.884461686128525,0.5997005664896057
148.0,20.982138868097195,0.4916951654356912,0.011642305497119173,10.883980761100608,0.5997078010254585
149.0,20.98581539308268,0.4918755158208507,0.011638083765801615,10.883499841481285,0.5997147966596993
150.0,20.989491704131392,0.4920558809120714,0.011633862600401024,10.883018927347232,0.5997217913327384
151.0,20.993167800601892,0.49223626063960646,0.01162964200190739,10.882538018775179,0.5997286106078891
152.0,20.996843681852297,0.4924166549336528,0.011625421971296294,10.882057115841919,0.5997355847392455
153.0,21.000519347240246,0.49259706372435147,0.011621202509527442,10.881576218624291,0.5997424855186844
154.0,21.004194796122913,0.4927774869417823,0.011616983617543224,10.8810953271992,0.5997491973727057
155.0,21.007870027857013,0.492957924515967,0.011612765279046243,10.880614441643448,0.5997556785746322
156.0,21.011545041798808,0.49313837637686997,0.011608547490927414,10.880133562033864,0.5997620901015588
157.0,21.015219837304066,0.4933188424543973,0.011604330274948785,10.879652688447518,0.599768557500284
158.0,21.01889441372812,0.49349932267839486,0.011600113632000583,10.879171820961535,0.5997750518984003
159.0,21.02256877042582,0.4936798169786545,0.011595897562948801,10.8786909596531,0.599781779249081
160.0,21.026242906751584,0.4938603252849069,0.01159168206863384,10.878210104599454,0.5997889766073975
161.0,21.029916822059324,0.49404084752682703,0.011587467143790518,10.877729255877929,0.5997966331052891
162.0,21.03359051570252,0.49422138363403084,0.01158325278675649,10.877248413565933,0.5998048715153697
163.0,21.037263987034184,0.4944019335360765,0.011579038998385796,10.876767577740925,0.5998131459524835
164.0,21.040937235406854,0.4945824971624699,0.011574825779511707,10.876286748480421,0.5998214687835576
165.0,21.044610260172632,0.4947630744426501,0.011570613130945723,10.875805925861998,0.5998299601031892
166.0,21.04828306068313,0.4949436653060058,0.011566401051791526,10.875325109963283,0.5998384128548405
167.0,21.051955636289513,0.49512426968186846,0.011562189541949193,10.874844300861952,0.5998470101910756
168.0,21.05562798634249,0.4953048874995078,0.011557978602172385,10.874363498635741,0.5998555526290164
169.0,21.05930011019229,0.4954855186881432,0.011553768231574174,10.873882703362431,0.5998640045208096
170.0,21.06297200718872,0.4956661631769321,0.011549558430037818,10.873401915119853,0.5998723426490115
171.0,21.06664367668108,0.4958468208949782,0.011545349175210527,10.872921133985237,0.5998805833379105
172.0,21.070315118018236,0.4960274917713267,0.011541140475468446,10.872440360036098,0.5998889512159574
173.0,21.073986330548607,0.4962081757349648,0.011536932346461448,10.871959593350436,0.599897353888346
174.0,21.07765731362012,0.49638887271483195,0.011532724773876794,10.871478834005723,0.59990569054997
175.0,21.081328066580266,0.49656958263980006,0.011528517760365538,10.870998082079568,0.5999139104431179
176.0,21.08499858877607,0.4967503054386903,0.011524311319874959,10.870517337650153,0.5999220159075992
177.0,21.088668879554106,0.4969310410402689,0.011520105453013109,10.87003660079572,0.5999300036676259
178.0,21.092338938260472,0.49711178937324413,0.011515900160360703,10.869555871594565,0.5999379062117205
179.0,21.096008764240835,0.49729255036626885,0.01151169544247072,10.869075150125049,0.5999459035263401
180.0,21.099678356840382,0.4974733239479406,0.011507491299868224,10.868594436465585,0.5999540240802271
181.0,21.103347715403856,0.4976541100468048,0.011503287733050023,10.86811373069465,0.5999621391244925
182.0,21.107016839275555,0.4978349085913412,0.01149908474237637,10.867633032890772,0.5999704746767716
183.0,21.110685727799293,0.4980157195099852,0.011494882327892234,10.867152343132533,0.5999785605279079
184.0,21.114354380318446,0.49819654273111075,0.011490680490022045,10.86667166149857,0.5999863887283614
185.0,21.11802279617595,0.4983773781830405,0.01148647922829672,10.866190988067572,0.5999938413118002
186.0,21.121690974714248,0.49855822579404024,0.011482278497010442,10.865710322916996,0.6000008202798156
187.0,21.12535891527536,0.49873908549231705,0.011478078267526053,10.865229666123744,0.6000074461558528
188.0,21.129026617200836,0.4989199572060297,0.011473878603644986,10.864749017766673,0.6000154778193711
189.0,21.132694079831783,0.49910084086328005,0.011469679500226494,10.864268377924715,0.6000232923581515
190.0,21.13636130250883,0.49928173639211354,0.011465480957271007,10.863787746676854,0.6000308405649865
191.0,21.140028284572196,0.4994626437205241,0.01146128297534546,10.863307124102132,0.6000381701563055
192.0,21.1436950253616,0.4996435627764466,0.011457085555013976,10.862826510279655,0.6000454641810716
193.0,21.147361524216336,0.4998244934877683,0.01145288869683794,10.862345905288581,0.6000526067002753
