k,PSNR,SSIM,mse,Log-Gradient,Angle
0.0,20.43662561931375,0.4652361644423944,0.0,10.955099302441752,0.5965892684489572
1.0,20.439735523356436,0.465382215025099,0.010117252310790251,10.954690854664213,0.5983856852034231
2.0,20.44340542421569,0.46555781991389394,0.012105837853002909,10.954213728358996,0.5984103299565416
3.0,20.447103665999112,0.46573511952144814,0.012237810032274966,10.953733178801272,0.5984278776422585
4.0,20.45080467537886,0.4659126212212308,0.012251298424422656,10.953252263325087,0.5984450427620193
5.0,20.454506177555945,0.46609018424741083,0.012251369090577332,10.952771258409918,0.5984615008295281
6.0,20.458207824675938,0.46626778628741383,0.012248853227957428,10.952290209221667,0.5984734201017364
7.0,20.4619095443865,0.46644542254716437,0.012245662369246456,10.951809126238393,0.5984838219093948
8.0,20.465611314757943,0.46662309154926374,0.01224221581275004,10.951328013087977,0.598492469938457
9.0,20.469313127219174,0.46680079277330117,0.01223864220098144,10.95084687156551,0.5985038844620751
10.0,20.47301497839086,0.46697852598400375,0.01223501188707882,10.950365702521115,0.5985144545690658
11.0,20.4767168670522,0.4671562910822739,0.012231351677641214,10.949884506444644,0.5985250808563751
12.0,20.48041879191225,0.46733408795514003,0.012227664189441871,10.949403283691995,0.5985353827858393
13.0,20.48412075179815,0.46751191650983687,0.012223957085389264,10.94892203451094,0.5985454482363094
14.0,20.487822745906755,0.4676897766642685,0.012220242580371627,10.9484407590664,0.598555362418212
15.0,20.49152477348255,0.46786766834647847,0.012216520447660806,10.947959457487716,0.5985651275017707
16.0,20.495226833934787,0.46804559149728653,0.012212795263878815,10.94747812987527,0.5985747573219982
17.0,20.498928926687828,0.46822354605854793,0.01220906334534504,10.946996776352204,0.59858436313605
18.0,20.502631051186242,0.46840153197298595,0.012205322678231125,10.946515397055096,0.5985938987056312
19.0,20.50633320687481,0.46857954918384603,0.012201580149644377,10.946033992068688,0.5986032881329423
20.0,20.510035393200376,0.46875759763456665,0.012197837782896683,10.945552561464003,0.5986126946079698
21.0,20.513737609611155,0.4689356772687194,0.012194093435358447,10.945071105308706,0.5986222012569729
22.0,20.51743985555618,0.4691137880299421,0.012190347627004746,10.94458962368181,0.5986317468259993
23.0,20.52114213048497,0.4692919298619045,0.012186602005400423,10.944108116649728,0.5986412291456745
24.0,20.524844433839327,0.46947010270753226,0.012182856258375037,10.943626584281118,0.5986506176117444
25.0,20.52854676505365,0.46964830650902684,0.012179110025754137,10.943145026647148,0.5986599584018913
26.0,20.532249123578183,0.46982654121006334,0.01217536306815124,10.94266344381835,0.5986693270689352
27.0,20.535951508862915,0.47000480675427864,0.012171615350377108,10.942181835861604,0.5986787381637426
28.0,20.539653920357456,0.4701831030852503,0.012167867122430136,10.941700202842219,0.5986881178320785
29.0,20.54335635751101,0.47036143014649917,0.01216411837655067,10.941218544824032,0.598697437144715
30.0,20.547058819772293,0.47053978788148076,0.012160369084358323,10.940736861868913,0.5987066412581598
31.0,20.55076130658953,0.4707181762335788,0.012156619880966902,10.940255154039047,0.5987158323913156
32.0,20.5544638174104,0.47089659514610643,0.012152870888912573,10.939773421396865,0.5987249846079415
33.0,20.558166351682008,0.4710750445623027,0.012149122111041999,10.939291664004736,0.5987341213728619
34.0,20.561868908841383,0.4712535244242512,0.01214537329105533,10.938809881926774,0.5987433469422302
35.0,20.565571488331877,0.4714320346747387,0.012141624609119784,10.938328075225774,0.5987525524550282
36.0,20.56927408959907,0.47161057525678424,0.012137875437179734,10.937846243964039,0.5987616876824197
37.0,20.57297671208901,0.471789146113571,0.01213412638165092,10.937364388204086,0.5987708079715871
38.0,20.57667935525157,0.47196774718915185,0.012130377353745624,10.936882508009333,0.5987798056194401
39.0,20.58038201853052,0.4721463784263058,0.012126628095149175,10.936400603445675,0.5987887062907334
40.0,20.58408470136902,0.4723250397677328,0.012122878999396475,10.93591867457565,0.5987976436897685
41.0,20.58778740320957,0.4725037311560433,0.01211913010524115,10.935436721461514,0.5988065478024133
42.0,20.59149012349406,0.47268245253377356,0.012115381412351843,10.93495474416556,0.598815347672914
43.0,20.59519286166372,0.4728612038433724,0.012111632920214275,10.934472742750144,0.5988241789425187
44.0,20.598895617159148,0.4730399850272066,0.012107884628160145,10.93399071727766,0.5988329703486069
45.0,20.602598389420294,0.47321879602756023,0.012104136535391717,10.93350866781057,0.598841751328825
46.0,20.606301177886472,0.47339763678663677,0.012100388641002494,10.933026594411391,0.598850627664296
47.0,20.61000398199633,0.4735765072465541,0.012096640943995056,10.932544497142702,0.598859504897577
48.0,20.613706801187877,0.4737554073493442,0.012092893443296124,10.932062376067144,0.5988683284728905
49.0,20.61740963489848,0.47393433703696203,0.012089146137769608,10.931580231247422,0.5988770860344376
50.0,20.62111248256484,0.47411329625127613,0.01208539902622794,10.931098062746306,0.5988861646403968
51.0,20.624815343623023,0.4742922849340688,0.012081652107441776,10.930615870626637,0.598895449405641
52.0,20.628518217508432,0.4744713030270455,0.012077905210278975,10.930133654947987,0.5989049101598757
53.0,20.632221103655812,0.4746503504718205,0.012074158499564024,10.92965141577332,0.5989142871177505
54.0,20.635924001499273,0.4748294272099329,0.012070411975209947,10.929169153165693,0.5989236258733609
55.0,20.639626910472252,0.47500853318283226,0.012066665453928507,10.92868686718598,0.5989330207467628
56.0,20.64332983000753,0.4751876683318861,0.012062919112775176,10.928204557897345,0.598942700097724
57.0,20.647032759537254,0.4753668325983809,0.012059172860443133,10.927722225362553,0.5989528847757981
58.0,20.65073569849289,0.47554602592351913,0.012055426615337794,10.927239869644128,0.5989627719747692
59.0,20.65443864630526,0.47572524824841644,0.012051680233942012,10.926757490805535,0.5989725574370204
60.0,20.658141602404537,0.4759044995141086,0.01204793400970935,10.926275088910339,0.5989819287696032
61.0,20.661844566220214,0.4760837796615478,0.01204418797238069,10.925792664022087,0.5989905618039847
62.0,20.665547537181148,0.4762630886316,0.012040442121563851,10.92531021620439,0.5989989708562538
63.0,20.669250514715536,0.476442426365055,0.012036696340621699,10.924827745521434,0.5990075421030674
64.0,20.67295349825092,0.4766217928026089,0.012032950681121445,10.924345252037247,0.5990162856296743
65.0,20.676656487214178,0.4768011878848843,0.012029205211362535,10.92386273581564,0.599025007497628
66.0,20.680359481031545,0.47698061155241295,0.012025459931196495,10.923380196920496,0.5990337735219656
67.0,20.68406247912858,0.47716006374564984,0.01202171484047354,10.92289763541578,0.5990424644148585
68.0,20.687765480930217,0.4773395444049622,0.01201796993904336,10.922415051365526,0.5990510447178473
69.0,20.691468485860693,0.47751905347063794,0.012014225226755874,10.921932444833848,0.5990595592327533
70.0,20.69517149334361,0.47769859088287686,0.012010480703461937,10.921449815884936,0.5990680173644007
71.0,20.69887450280192,0.4778781565818015,0.012006736369014281,10.92096716458305,0.5990763419214079
72.0,20.702577513657893,0.4780577505074471,0.012002992223267861,10.920484490992536,0.5990844200310229
73.0,20.706280525331096,0.47823737259976923,0.011999248211546607,10.92000179517607,0.5990922536705279
74.0,20.70998353724226,0.47841702279864123,0.01199550434956051,10.919519077198066,0.5991000363595068
75.0,20.713686548811722,0.4785967010438523,0.011991760625714233,10.91903633712334,0.5991076476047522
76.0,20.71738955945916,0.4787764072751061,0.01198801709555859,10.91855357501648,0.5991156828350626
77.0,20.721092568603623,0.4789561414320298,0.011984273758983584,10.918070790942155,0.5991238472184065
78.0,20.724795575663467,0.47913590345416357,0.011980530615879515,10.917587984965106,0.5991319187507461
79.0,20.728498580056414,0.47931569328096346,0.011976787666136943,10.917105157150157,0.5991396423794128
80.0,20.732201581199504,0.4794955108518091,0.011973044909646836,10.916622307562205,0.5991472644272092
81.0,20.73590457850914,0.4796753561059896,0.011969302346300684,10.916139436266228,0.5991562509800687
82.0,20.73960757140106,0.47985522898271643,0.011965559975990643,10.91565654332728,0.5991657333508255
83.0,20.743310559290332,0.4800351294211198,0.01196181779860971,10.915173628810493,0.5991741651173496
84.0,20.7470135415914,0.48021505736024217,0.011958075814051845,10.914690692781075,0.5991819756063643
85.0,20.750716517718,0.48039501273905,0.011954334022212106,10.914207735304318,0.5991893799253863
86.0,20.75441948708324,0.4805749954964182,0.011950592422986883,10.913724756445582,0.5991963690860065
87.0,20.758122449099574,0.4807550055711509,0.011946851010494036,10.913241756270342,0.5992023713344006
88.0,20.76182540317877,0.48093504290196126,0.011943109783734156,10.912758734844155,0.5992101743488676
89.0,20.76552834873196,0.4811151074274816,0.011939368742679262,10.912275692232654,0.5992197693685719
90.0,20.769231285169603,0.481295199086265,0.011935627887309942,10.91179262850155,0.5992278821994313
91.0,20.772934211901507,0.48147531781678027,0.011931887217615466,10.91130954371663,0.5992356205535995
92.0,20.776637128336823,0.48165546355741445,0.011928146733593863,10.910826437943758,0.5992430385300543
93.0,20.780340033884027,0.4818356362464708,0.011924406435251927,10.91034331124888,0.5992504778202404
94.0,20.784042927950942,0.4820158358221729,0.011920666322605255,10.909860163698012,0.5992584218602733
95.0,20.787745809944738,0.48219606222266326,0.011916926395678276,10.90937699535725,0.5992665989434401
96.0,20.791448679271923,0.4823763153859974,0.011913186616091498,10.908893806292754,0.5992748289320964
97.0,20.795151535338334,0.48255659525015404,0.011909447000065545,10.90841059657075,0.5992832648857632
98.0,20.798854377549155,0.48273690175302736,0.011905707569596878,10.907927366257558,0.5992919352156484
99.0,20.80255720530891,0.4829172348324311,0.011901968324784884,10.907444115419572,0.5993006068943301
100.0,20.806260018021465,0.4830975944260933,0.011898229265737862,10.906960844123263,0.5993092056380274
101.0,20.809962815090017,0.48327798047166964,0.01189449039257309,10.90647755243518,0.5993177883488481
102.0,20.813665595917104,0.48345839290672027,0.01189075170246052,10.905994240421961,0.5993261461094357
103.0,20.817368359904606,0.4836388316687346,0.011887013195138355,10.905510908150328,0.5993343249723208
104.0,20.821071106453743,0.4838192966951178,0.011883274870263381,10.905027555687074,0.5993423822871282
105.0,20.82477383496507,0.483999787923191,0.0118795367244606,10.904544183099047,0.5993503286075944
106.0,20.828476544838477,0.48418030529019646,0.011875798758123758,10.904060790453174,0.5993599753561768
107.0,20.832179235473202,0.48436084873329416,0.011872060971667823,10.903577377816463,0.5993698182531192
108.0,20.835881906267822,0.48454141818955954,0.011868323365528528,10.90309394525599,0.5993791089288855
109.0,20.83958455662024,0.48472201359599304,0.011864585936308516,10.902610492838939,0.5993879500964042
110.0,20.843287185927693,0.48490263488950663,0.011860848682227093,10.902127020632587,0.5993967415859968
111.0,20.846989793586786,0.4850832820069389,0.011857111594283735,10.901643528704183,0.5994054768230843
112.0,20.850692378993433,0.4852639548850391,0.01185337465078962,10.901160017120787,0.5994139092406895
113.0,20.854394941542882,0.48544465346047994,0.011849637885200315,10.900676485949917,0.5994222239967159
114.0,20.858097480629752,0.4856253776698525,0.011845901263445723,10.900192935258321,0.5994313052645787
115.0,20.861799995647967,0.48580612744966684,0.011842164812649977,10.899709365113457,0.5994405003410348
116.0,20.865502485990802,0.485986902736349,0.011838428542257046,10.899225775583082,0.5994495185983392
117.0,20.869204951050868,0.4861677034662508,0.011834692452974702,10.898742166735019,0.5994578072211104
118.0,20.872907390220107,0.48634852957563535,0.011830956545527299,10.89825853863718,0.599465874588878
119.0,20.8766098028898,0.48652938100068716,0.01182722082065513,10.897774891357543,0.5994738856217806
120.0,20.880312188450574,0.4867102576775151,0.01182348527911346,10.897291224964164,0.5994817845952606
121.0,20.88401454629239,0.48689115954214185,0.011819749921671693,10.89680753952518,0.5994896527858132
122.0,20.887716875804536,0.48707208653050776,0.01181601474911241,10.8963238351088,0.5994975706834336
123.0,20.89141917637564,0.4872530385784788,0.011812279762230494,10.895840111783311,0.5995056588214999
124.0,20.89512144739367,0.48743401562183813,0.01180854496183213,10.895356369617076,0.5995142131562298
125.0,20.898823688245937,0.48761501759628345,0.011804810348733817,10.894872608678531,0.5995227005430216
126.0,20.902525898319084,0.48779604443743585,0.011801075923569326,10.894388829036192,0.5995310590728968
127.0,20.906228076999078,0.48797709608083856,0.011797341684729169,10.893905030758628,0.5995393393716753
128.0,20.909930223671232,0.48815817246195325,0.011793607633064605,10.893421213914479,0.5995475825673672
129.0,20.9136323377202,0.4883392735161543,0.011789873769435195,10.892937378572466,0.5995558293544646
130.0,20.91733441852997,0.48852039917874324,0.011786140074463868,10.892453524799521,0.5995640978868982
131.0,20.921036465483848,0.48870154938494204,0.011782406557844046,10.891969652663585,0.5995724079375483
132.0,20.9247384779645,0.4888827240698868,0.011778673230373857,10.89148576223361,0.5995807498433458
133.0,20.928440455353904,0.4890639231686394,0.01177494009296593,10.891001853578631,0.599589154718381
134.0,20.93214239703339,0.4892451466161729,0.011771207146535964,10.890517926767753,0.5995972898345074
135.0,20.935844302383618,0.4894263943473906,0.0117674743920017,10.89003398187016,0.5996051275031834
136.0,20.93954617078458,0.4896076662971119,0.011763741829212115,10.889550018955106,0.5996130255924496
137.0,20.943248001615608,0.48978896240007597,0.011760009454542218,10.889066038091915,0.5996211364674305
138.0,20.946949794255367,0.48997028259093955,0.011756277268975294,10.888582039349984,0.599629315920918
139.0,20.950651548081858,0.49015162680428226,0.011752545273497493,10.888098022798786,0.5996379158910576
140.0,20.954353262472413,0.490332994974606,0.011748813469096593,10.887613988507866,0.5996469872746194
141.0,20.958054936803705,0.4905143870363291,0.011745081856760695,10.887129936546847,0.5996558100281777
142.0,20.96175657045174,0.490695802923794,0.011741350437476735,10.88664586698543,0.5996643746390942
143.0,20.96545816279185,0.4908772425712595,0.011737619212229147,10.88616177989339,0.5996727279115256
144.0,20.969159713198717,0.4910587059129085,0.011733888181998324,10.885677675340574,0.5996808869785741
145.0,20.97286122104634,0.4912401928828416,0.011730157347759321,10.885193553396912,0.5996890062337407
146.0,20.97656268570807,0.4914217034150823,0.011726426709447823,10.88470941413239,0.5996968137346733
147.0,20.980264106556575,0.4916032374435763,0.01172269626786714,10.884225257617073,0.5997042780066105
148.0,20.98396548296387,0.49178479490218335,0.01171896602397325,10.883741083921098,0.5997114009819499
149.0,20.987666814301296,0.4919663757246904,0.011715235978712001,10.883256893114684,0.5997183843776276
150.0,20.991368099939535,0.49214797984480424,0.011711506133017358,10.882772685268117,0.5997254205219941
151.0,20.9950693392486,0.4923296071961512,0.011707776487809943,10.882288460451768,0.5997322744577023
152.0,20.99877053159783,0.49251125771228094,0.011704047043995674,10.88180421873608,0.5997393174669906
153.0,21.002471676355906,0.4926929313266574,0.011700317802464095,10.881319960191576,0.5997461835720396
154.0,21.00617277289084,0.492874627972677,0.011696588764087005,10.880835684888849,0.5997527864827742
155.0,21.00987382056998,0.49305634758364647,0.011692859902174642,10.88035139289833,0.599759289293477
156.0,21.013574818760006,0.4932380900927999,0.011689131234282045,10.879867084290678,0.5997657426900295
157.0,21.017275766826934,0.4934198554332922,0.011685402771681811,10.879382759136723,0.5997722716825381
158.0,21.020976664136107,0.4936016435381987,0.011681674515191634,10.87889841750737,0.5997789761828227
159.0,21.02467751005221,0.4937834543405137,0.01167794646560437,10.878414059473602,0.599785936655316
160.0,21.028378303939252,0.493965287773157,0.01167421862137183,10.8779296851065,0.5997934319625744
161.0,21.032079045160586,0.4941471437689689,0.01167049097691005,10.87744529447725,0.5998015697871181
162.0,21.035779733078886,0.4943290222607109,0.011666763533023058,10.876960887657123,0.5998099501234103
163.0,21.039480367056168,0.49451092318106565,0.011663036290494888,10.876476464717468,0.5998182841241811
164.0,21.043180946453766,0.49469284646263917,0.011659309250088332,10.875992025729706,0.5998268103174991
165.0,21.046881470632364,0.4948747920379593,0.011655582412105658,10.87550757076534,0.599835318897698
166.0,21.050581938951986,0.49505675983947456,0.011651855775130504,10.875023099895936,0.5998439335523115
167.0,21.054282350771953,0.4952387497995521,0.011648129339868325,10.874538613193145,0.5998525970570083
168.0,21.057982705450954,0.49542076185048894,0.01164440310648477,10.874054110728693,0.599861137018831
169.0,21.06168300234698,0.49560279592449935,0.01164067707367851,10.873569592574361,0.5998695868333431
170.0,21.065383240817397,0.49578485195372024,0.011636951242130728,10.873085058802014,0.5998778896646314
171.0,21.069083420218856,0.49596692987021335,0.011633225574986323,10.872600509482517,0.5998863244535628
172.0,21.072783539907363,0.4961490296059561,0.011629500109377461,10.872115944687875,0.5998947918864569
173.0,21.076483599238266,0.49633115109285625,0.011625774846482896,10.871631364490185,0.5999032121938581
174.0,21.08018359756621,0.49651329426274055,0.011622049760205339,10.871146768960575,0.5999115260027909
175.0,21.083883534245214,0.4966954590473565,0.011618324876661269,10.87066215817125,0.5999197657548948
176.0,21.087583408628596,0.49687764537837903,0.011614600197897179,10.87017753219456,0.5999278079044652
177.0,21.091283220069016,0.497059853187398,0.011610875724446797,10.86969289110293,0.5999358209032168
178.0,21.09498296791848,0.4972420824059376,0.01160715145681609,10.869208234968864,0.5999438446709435
179.0,21.0986826515283,0.49742433296543287,0.011603427395482787,10.868723563864949,0.5999520174737206
180.0,21.102382270249148,0.4976066047972492,0.011599703540896211,10.86823887786385,0.5999602485988077
181.0,21.106081823431005,0.49778889783267183,0.011595979893477023,10.867754177038316,0.599968605774941
182.0,21.1097813104232,0.4979712120029119,0.011592256453187774,10.867269461461161,0.599976827431288
183.0,21.11348073057439,0.49815354723909944,0.011588533220319549,10.866784731205286,0.5999847968804438
184.0,21.117180083232554,0.4983359034722925,0.011584810195166221,10.866299986343662,0.5999923912966577
185.0,21.12087936774502,0.4985182806334691,0.011581087375620839,10.86581522694933,0.5999995188197417
186.0,21.12457858345843,0.49870067865353046,0.011577364677127609,10.86533045309293,0.6000062498735456
187.0,21.128277729718768,0.49888309746330645,0.011573642150992393,10.864845664846953,0.6000141229683157
188.0,21.131976805871346,0.49906553699354106,0.011569919817061416,10.86436086228469,0.6000220635614849
189.0,21.135675811260807,0.49924799717491214,0.011566197673823579,10.863876045479518,0.60002972489334
190.0,21.13937474523113,0.4994304779380114,0.011562475721778782,10.863391214504894,0.6000371386865903
191.0,21.14307360712562,0.4996129792133637,0.011558753961424034,10.862906369434358,0.6000445066969974
192.0,21.146772396286913,0.49979550093141084,0.011555032393253336,10.862421510341523,0.6000517180338295
193.0,21.15047111205699,0.49997804302252086,0.011551311017757625,10.861936637300092,0.6000588708731308
