k,PSNR,SSIM,mse,Log-Gradient,Angle
0.0,20.43662561931375,0.4652361644423944,0.0,10.955099302441752,0.5965892684489572
1.0,20.439735559726074,0.4653822167332488,0.010117370616320192,10.954690849887276,0.5983856853050068
2.0,20.44340553988451,0.46555782538511936,0.012106096062671918,10.954213713222776,0.5984103301383511
3.0,20.44710390424186,0.46573513083191526,0.01223821074070775,10.953733147680696,0.5984278778778317
4.0,20.450805079513998,0.4659126404507509,0.012251842139293942,10.953252210588467,0.5984450434449392
5.0,20.454506790919297,0.4660902134777894,0.012252055864097538,10.952771178422168,0.5984615015947528
6.0,20.45820869061668,0.46626782760220714,0.012249683016728678,10.952290096344834,0.598473422503807
7.0,20.46191070626628,0.4664454780316128,0.012246635103365025,10.951808974831781,0.5984838248216865
8.0,20.465612815950625,0.46662316329028064,0.012243331414452966,10.951327817508199,0.5984924742286085
9.0,20.469315011110684,0.4668008828594503,0.012239900589009211,10.950846626166506,0.5985038886582441
10.0,20.47301728837914,0.46697863650550747,0.01223641297790317,10.950365401654174,0.5985144600831921
11.0,20.47671964654713,0.46715642413099806,0.012232895386725817,10.949884144458405,0.5985250875571986
12.0,20.480422084335647,0.46733424562459697,0.012229350432287737,10.949402854932462,0.5985353908041842
13.0,20.484124600583677,0.4675121008951759,0.01222578577684949,10.948921533321483,0.5985454576453323
14.0,20.487827194499907,0.46768998986228455,0.012222213634710433,10.948440179787763,0.5985553733198063
15.0,20.491529865340596,0.46786791245558673,0.012218633779191588,10.947958794458017,0.598565139951855
16.0,20.495232612526756,0.4680458686175382,0.012215050786566924,10.947477377430012,0.5985747715352389
17.0,20.498935435494445,0.4682238582916147,0.012211460973560061,10.94699592882427,0.5985843790028361
18.0,20.50263833369991,0.46840188142216205,0.012207862326174955,10.94651444877476,0.5985939163208317
19.0,20.50634130659955,0.46857993795404435,0.012204261730912134,10.946032937363618,0.5986033076646059
20.0,20.51004435365181,0.46875802783231796,0.012200661211029345,10.945551394659264,0.5986127165304092
21.0,20.51374747431646,0.46893615100215724,0.012197058624274485,10.945069820726761,0.5986222258406982
22.0,20.517450668054046,0.4691143074088122,0.012193454490217581,10.944588215642527,0.5986317736208019
23.0,20.521153934325564,0.46929249699755426,0.01218985045637417,10.94410657947038,0.5986412584748956
24.0,20.524857272584256,0.4694707197129085,0.01218624621071808,10.943624912276395,0.5986506492843894
25.0,20.528560682275916,0.4696489754986694,0.012182641392875025,10.943143214129146,0.5986599927217927
26.0,20.532264162862155,0.4698272643001098,0.01217903576360777,10.942661485096586,0.5986693642798264
27.0,20.535967713804286,0.47000558606244897,0.01217542928781763,10.942179725243015,0.5986787784903496
28.0,20.539671334563195,0.4701839407308513,0.01217182221504228,10.94169793463117,0.5986881610588649
29.0,20.54337502459932,0.47036232825041924,0.012168214537900636,10.941216113322316,0.5986974828951661
30.0,20.547078783372605,0.4705407485661815,0.012164606227826107,10.94073426137575,0.5987066900400927
31.0,20.550782610342427,0.4707192016231018,0.012160997919752961,10.940252378851097,0.5987158842934727
32.0,20.55448650496759,0.47089768736605686,0.01215738973627202,10.939770465808225,0.5987250397519706
33.0,20.558190466706293,0.47107620573985054,0.012153781680208968,10.939288522306947,0.5987341806890848
34.0,20.561894495006605,0.4712547566881353,0.012150173495354234,10.938806548408818,0.5987434100118053
35.0,20.565598589322892,0.47143334015524974,0.01214656536168644,10.938324544174085,0.5987526188018276
36.0,20.569302749111685,0.4716119560857679,0.012142956651496572,10.937842509662504,0.5987617577160896
37.0,20.573006973829983,0.47179060442442405,0.012139347970758158,10.93736044493405,0.598770881264705
38.0,20.576711262938527,0.4719692851168192,0.0121357392307705,10.9368783500496,0.5987798817679959
39.0,20.58041561589195,0.4721479981072729,0.012132130173724926,10.936396225072505,0.5987887858350887
40.0,20.5841200321442,0.4723267433400224,0.012128521192183352,10.935914070062777,0.5987977286914704
41.0,20.58782451114856,0.4725055207592182,0.012124912325304141,10.935431885080144,0.5988066353484495
42.0,20.591529052357643,0.47268433030892104,0.012121303572735057,10.934949670184372,0.5988154395550666
43.0,20.595233655223364,0.47286317193311245,0.012117694933940864,10.93446742543529,0.5988242751273223
44.0,20.598938319196968,0.4730420455756772,0.012114086408232336,10.933985150892784,0.5988330713317854
45.0,20.602643043729007,0.4732209511804237,0.012110477994790673,10.933502846616793,0.5988418553416689
46.0,20.606347828269357,0.4733998886910664,0.012106869692688326,10.933020512667328,0.5988507390129462
47.0,20.6100526722672,0.47357885805123473,0.012103261500906752,10.932538149104456,0.5988596211230307
48.0,20.613757575171018,0.4737578592044717,0.012099653418351538,10.932055755988317,0.598868447255878
49.0,20.617462536428622,0.47393689209423123,0.01209604544386541,10.931573333379115,0.598877211362811
50.0,20.62116755548711,0.47411595666388245,0.01209243757623944,10.931090881337127,0.5988862998557466
51.0,20.624872631792904,0.47429505285670404,0.012088829814223058,10.930608399922697,0.5988955941829999
52.0,20.628577764791732,0.47447418061589247,0.012085221986727526,10.93012588919291,0.5989050615500827
53.0,20.632282953928613,0.4746533398845482,0.012081614258497618,10.929643349208245,0.5989144424406329
54.0,20.635988198647883,0.47483253060569314,0.01207800662941869,10.929160780029276,0.5989237876125858
55.0,20.639693498393182,0.4750117527222586,0.0120743989163846,10.928678181714405,0.5989331907837768
56.0,20.643398852607433,0.47519100617708504,0.012070791296095866,10.928195554324319,0.5989428904373503
57.0,20.647104260732895,0.47537029091293076,0.01206718367771309,10.927712897919312,0.5989530785957166
58.0,20.6508097222111,0.47554960687245984,0.0120635759794683,10.927230212559444,0.598962968584113
59.0,20.6545152364829,0.47572895399825654,0.012059968058396323,10.926747498305714,0.598972758398729
60.0,20.65822080298843,0.4759083322328146,0.012056360206101886,10.92626475521923,0.5989821211460279
61.0,20.66192642116714,0.4760877415185387,0.012052752453349292,10.925781983361082,0.5989907483465505
62.0,20.665632090457784,0.47626718179774824,0.012049144799724293,10.925299182792434,0.5989991663505564
63.0,20.669337810298405,0.4764466530126732,0.012045537129498648,10.924816353575022,0.5990077497891554
64.0,20.67304358012636,0.4766261551054575,0.01204192949247231,10.92433349577043,0.5990165002649275
65.0,20.676749399378295,0.4768056880181588,0.012038321957736374,10.923850609440032,0.5990252309105804
66.0,20.680455267490178,0.47698525169274203,0.01203471452511993,10.92336769464528,0.599034002241498
67.0,20.684161183897245,0.4771648460710924,0.012031107194450783,10.922884751447702,0.5990426969405966
68.0,20.68786714803407,0.4773444710950023,0.012027499965556026,10.922401779908906,0.5990512824286415
69.0,20.691573159334485,0.47752412670618066,0.012023892838263002,10.921918780090586,0.5990598019836142
70.0,20.695279217231658,0.4777038128462434,0.012020285812399969,10.921435752054506,0.599068266017039
71.0,20.698985321158023,0.4778835294567243,0.012016678887796816,10.920952695862518,0.5990765908145133
72.0,20.702691470545336,0.4780632764790691,0.012013072064285785,10.920469611576548,0.5990846687020525
73.0,20.70639766482259,0.47824305385463434,0.0120094652870974,10.91998649925687,0.5990925030946207
74.0,20.710103903419874,0.4784228615246942,0.012005858574553599,10.91950335896548,0.5991002898305529
75.0,20.71381018576688,0.478602699430434,0.012002251910165292,10.919020190764808,0.5991079020072401
76.0,20.717516511292583,0.47878256751294695,0.011998645351766766,10.918536994717046,0.5991159678914598
77.0,20.721222879425262,0.4789624657132465,0.011995038899224852,10.91805377088447,0.5991241406650321
78.0,20.724929289592477,0.4791423939722567,0.011991432552406596,10.917570519329438,0.5991322079884894
79.0,20.72863574122111,0.47932235223080993,0.011987826311179253,10.917087240114387,0.5991399200699639
80.0,20.732342233737327,0.4795023404296574,0.011984220175410393,10.916603933301838,0.5991475531261241
81.0,20.736048766566583,0.4796823585094609,0.011980614144968095,10.916120598954391,0.59915665077615
82.0,20.739755339133655,0.4798624064107961,0.011977008219720904,10.915637237134733,0.599166092597044
83.0,20.743461950862596,0.4800424840741502,0.011973402399538237,10.915153847905627,0.5991745000002995
84.0,20.747168601176757,0.4802225914399245,0.011969796684290365,10.914670431329919,0.5991822980685098
85.0,20.750875289498794,0.48040272844843307,0.011966191073848583,10.91418698747054,0.5991896962012782
86.0,20.754582015250644,0.4805828950399058,0.011962585568085445,10.9137035163905,0.5991966622767099
87.0,20.75828877785357,0.48076309115447957,0.01195898016093705,10.913220018152924,0.5992026141409998
88.0,20.76199557672809,0.48094331673220986,0.011955374851536249,10.91273649282102,0.5992106668022433
89.0,20.76570241129405,0.4811235717130642,0.011951769639831081,10.912252940458083,0.5992201786997088
90.0,20.769409280970574,0.48130385603692116,0.011948164525777986,10.911769361127487,0.5992282692525202
91.0,20.77311618517609,0.48148416964357826,0.011944559509342208,10.911285754892683,0.5992359979395193
92.0,20.77682312332831,0.4816645124727373,0.011940954590497516,10.910802121817209,0.5992434104502352
93.0,20.78053009484425,0.4818448844640216,0.011937349769226427,10.910318461964684,0.5992508918715411
94.0,20.784237099140206,0.48202528555696283,0.0119337450455202,10.909834775398805,0.5992588522624299
95.0,20.7879441356318,0.4822057156910109,0.011930140419378898,10.909351062183353,0.5992670480489429
96.0,20.7916512037339,0.48238617480552204,0.011926535851983621,10.908867322382173,0.5992753016076873
97.0,20.795358302860713,0.482566662839774,0.011922931360412682,10.90838355605919,0.5992837585694758
98.0,20.799065432425714,0.4827471797329497,0.011919326966170108,10.907899763278413,0.5992924401067383
99.0,20.802772591841666,0.4829277254241558,0.011915722669330588,10.907415944103944,0.599301118967135
100.0,20.806479780520647,0.4831082998524008,0.01191211846997771,10.906932098599954,0.5993097246782951
101.0,20.810186997874013,0.4832889029566186,0.011908514368203806,10.906448226830705,0.5993183110204131
102.0,20.8138942433124,0.4834695346756462,0.011904910361040988,10.905964328860552,0.5993266697278864
103.0,20.817601516245773,0.4836501949482401,0.01190130644831746,10.905480404753934,0.5993348439270143
104.0,20.821308816083356,0.4838308837130707,0.011897702629509663,10.904996454575365,0.5993429129243174
105.0,20.82501614223367,0.4840116009087181,0.011894098901372703,10.904512478389423,0.5993509445430237
106.0,20.82872349410454,0.4841923464736808,0.011890495264275516,10.904028476260768,0.599360647830614
107.0,20.832430871103064,0.48437312034637053,0.011886891718608253,10.90354444825414,0.5993704772341737
108.0,20.83613827263565,0.48455392246510787,0.011883288264781673,10.903060394434359,0.5993797457846722
109.0,20.839845698107982,0.48473475276813316,0.0118796848990149,10.90257631486636,0.5993885751217213
110.0,20.84355314692505,0.4849156111935978,0.011876081619856,10.90209220961517,0.5993973957017394
111.0,20.847260618491106,0.4850964976795676,0.011872478418321996,10.901608078745783,0.5994061176540263
112.0,20.850968112209728,0.4852774121640216,0.011868875272661407,10.901123922323029,0.599414540171127
113.0,20.854675627483754,0.4854583545848555,0.011865272216299691,10.900639740412187,0.5994229247145729
114.0,20.858383163715327,0.4856393248798769,0.01186166921474626,10.900155533077756,0.5994320226676392
115.0,20.862090720305876,0.48582032298680716,0.011858066295928907,10.899671300384986,0.5994412442924576
116.0,20.865798296656116,0.48600134884328283,0.011854463468832203,10.899187042399406,0.5994502254147581
117.0,20.869505892166053,0.486182402386852,0.011850860734138647,10.898702759186625,0.599458472078119
118.0,20.873213506234976,0.4863634835549851,0.011847258092547332,10.898218450812335,0.5994665549106599
119.0,20.876921138261473,0.48654459228505403,0.011843655544773166,10.89773411734231,0.5994745712173483
120.0,20.88062878764341,0.4867257285143558,0.01184005309154599,10.897249758842403,0.5994824763829091
121.0,20.88433645377796,0.48690689218009786,0.011836450733609722,10.896765375378546,0.5994903571985524
122.0,20.888044136061556,0.4870880832194003,0.011832848471721424,10.896280967016757,0.5994982867788496
123.0,20.891751833889927,0.4872693015693028,0.0118292463066504,10.895796533823132,0.5995064486072581
124.0,20.89545954665812,0.4874505471667527,0.011825644239177114,10.895312075863846,0.5995150146886666
125.0,20.899167273760412,0.4876318199486174,0.01182204227009242,10.894827593205159,0.599523499754511
126.0,20.90287501459043,0.487813119851675,0.011818440399841198,10.894343085913405,0.5995318622171584
127.0,20.906582768541032,0.48799444681262183,0.0118148386269493,10.893858554054981,0.5995401449697598
128.0,20.9102905350044,0.48817580076806627,0.011811236952242196,10.893373997696363,0.5995484069669984
129.0,20.913998313371984,0.48835718165453024,0.011807635376553575,10.892889416904111,0.5995566695941208
130.0,20.917706103034533,0.4885385894084546,0.011804033879242105,10.892404811742875,0.5995649511681782
131.0,20.921413903382067,0.4887200239661924,0.011800432472501244,10.891920182278563,0.599573267877121
132.0,20.9251217138039,0.48890148526401117,0.0117968311658148,10.891435528577983,0.5995816461628052
133.0,20.92882953368862,0.48908297323809297,0.01179322996006915,10.89095085070802,0.5995900487157563
134.0,20.932537362424114,0.4892644878245356,0.011789628856153662,10.890466148735644,0.5995981619337919
135.0,20.93624519939754,0.4894460289593547,0.011786027854959828,10.889981422727907,0.5996059877697986
136.0,20.939953043995366,0.4896275965784734,0.011782426955747204,10.889496672751935,0.599613946692115
137.0,20.94366089560331,0.4898091906177402,0.011778826155424962,10.889011898874925,0.5996220617039737
138.0,20.947368753606398,0.489990811012907,0.01177522545495038,10.888527101164154,0.5996302764922326
139.0,20.951076617388935,0.49017245769965073,0.011771624855283639,10.888042279686982,0.599638944703458
140.0,20.954784486334507,0.49035413061355754,0.011768024357386445,10.887557434510844,0.5996480608556669
141.0,20.958492359825996,0.49053582969013226,0.011764423962220756,10.887072565703264,0.5996568642037838
142.0,20.96220023724554,0.49071755486479335,0.011760823670747239,10.886587673331837,0.5996654171565007
143.0,20.96590811797459,0.4908993060728741,0.011757223483923983,10.886102757464245,0.5996737585362131
144.0,20.969616001393856,0.4910810832496258,0.011753623402705034,10.88561781816825,0.5996819152370584
145.0,20.973323886883357,0.49126288633021004,0.011750023428038943,10.88513285551169,0.5996900358571181
146.0,20.977031773822368,0.4914447152497076,0.011746423559795955,10.884647869562478,0.599697806737526
147.0,20.98073966158946,0.49162656994311754,0.011742823798791605,10.884162860388601,0.599705236778104
148.0,20.984447549562493,0.4918084503453481,0.011739224145955152,10.88367782805813,0.5997123467833162
149.0,20.988155437118593,0.49199035639122757,0.011735624602205508,10.88319277263921,0.5997193613927915
150.0,20.991863323634178,0.4921722880154997,0.01173202516844965,10.88270769420008,0.5997263615995151
151.0,20.995571208484943,0.49235424515281867,0.011728425845581127,10.882222592809049,0.5997332740287523
152.0,20.999279091045867,0.4925362277377623,0.011724826634478564,10.881737468534512,0.5997402906861887
153.0,21.002986970691214,0.4927182357048198,0.011721227536004217,10.881252321444945,0.5997471447928218
154.0,21.00669484679452,0.49290026898839695,0.011717628551002349,10.880767151608909,0.5997537221278033
155.0,21.010402718728617,0.49308232752281445,0.011714029650062999,10.880281959094772,0.5997602316550189
156.0,21.014110585865588,0.49326441124230996,0.011710430856122903,10.879796743971188,0.5997667090198919
157.0,21.017818447576836,0.49344652008104123,0.011706832177709108,10.87931150630696,0.5997732408451325
158.0,21.021526303233017,0.4936286539730724,0.011703233615611198,10.87882624617098,0.5997800015673299
159.0,21.025234152204085,0.49381081285239237,0.011699635170593851,10.878340963632215,0.5997870794014867
160.0,21.028941993859252,0.49399299665290286,0.011696036839803192,10.877855658759746,0.5997946645139324
161.0,21.032649827567035,0.494175205308419,0.011692438618898274,10.877370331622755,0.5998029038804616
162.0,21.0363576526952,0.49435743875268107,0.011688840508655835,10.876884982290518,0.5998112820004985
163.0,21.04006546861083,0.49453969691933836,0.011685242509832425,10.876399610832387,0.5998196574385112
164.0,21.04377327468025,0.49472197974195514,0.011681644623163335,10.875914217317797,0.5998282163334993
165.0,21.047481070269093,0.4949042871540181,0.011678046848576889,10.875428801816266,0.5998367469528973
166.0,21.05118885474226,0.4950866190889256,0.011674449184972372,10.874943364397387,0.5998454025052852
167.0,21.054896627463926,0.495268975479997,0.011670851633027581,10.874457905130837,0.5998540612805144
168.0,21.058604387797537,0.49545135626046505,0.011667254192517093,10.873972424086372,0.5998626064602731
169.0,21.062312135105845,0.49563376136347786,0.01166365686247739,10.873486921333813,0.5998710517630769
170.0,21.066019868750857,0.4958161907221063,0.011660059640346023,10.873001396942975,0.5998793840847817
171.0,21.069727588093862,0.49599864426933055,0.011656462495104264,10.87251585098285,0.5998878437152583
172.0,21.073435292495432,0.496181121938055,0.01165286546176736,10.87203028352351,0.5998963240555663
173.0,21.0771429813154,0.4963636236610906,0.011649268539321512,10.87154469463505,0.5999047498462383
174.0,21.08085065391291,0.4965461493711776,0.01164567170339497,10.871059084386665,0.5999130450992274
175.0,21.08455830964634,0.49672869900096656,0.011642074981411534,10.870573452848697,0.5999212685927522
176.0,21.088265947873378,0.4969112724830261,0.011638478373903834,10.870087800091566,0.5999293452141119
177.0,21.09197356795097,0.49709386974984077,0.011634881881376923,10.869602126185779,0.599937358602888
178.0,21.09568116923535,0.49727649073381275,0.011631285504307797,10.869116431201927,0.599945439819493
179.0,21.09938875108202,0.49745913536726416,0.011627689243145228,10.868630715210692,0.5999536448172184
180.0,21.103096312845764,0.49764180358243215,0.011624093098309324,10.868144978282835,0.5999618896171844
181.0,21.106803853880646,0.49782449531147455,0.011620497070191192,10.867659220489209,0.5999702894353546
182.0,21.110511373540003,0.4980072104864582,0.011616901158640202,10.867173441900736,0.5999784755928105
183.0,21.114218871176448,0.4981899490393756,0.01161330536400254,10.866687642588431,0.5999864053935277
184.0,21.11792634614186,0.49837271090213675,0.011609709686102991,10.866201822623383,0.599993933422006
185.0,21.121633797787418,0.4985554960065624,0.011606114123247538,10.865715982076752,0.6000009789018518
186.0,21.125341225463554,0.4987383042843993,0.011602518580394785,10.865230121017005,0.6000076725186593
187.0,21.129048628519985,0.4989211356673066,0.011598923129529313,10.864744239515073,0.6000158791968068
188.0,21.132756006305705,0.49910399008686496,0.011595327778950172,10.864258337642394,0.6000237730025332
189.0,21.136463358168974,0.4992868674745668,0.01159173252838785,10.86377241547049,0.6000313840933378
190.0,21.14017068345733,0.49946976776183033,0.01158813737831459,10.863286473070977,0.6000387960719704
191.0,21.14387798151759,0.4996526908799859,0.011584542329199676,10.862800510515545,0.6000461635687768
192.0,21.14758525169585,0.49983563676028714,0.011580947381509235,10.86231452787598,0.6000533651623225
193.0,21.15129249333748,0.5000186053338989,0.011577352535706334,10.861828525224153,0.6000605051207621
