k,PSNR,SSIM,mse,Log-Gradient,Angle
0.0,20.43662561931375,0.4652361644423944,0.0,10.955099302441752,0.5965892684489572
1.0,20.43973517788732,0.4653821987996734,0.010116128546233049,10.954690900039537,0.5983856842384956
2.0,20.44340432553931,0.4655577679456276,0.012103385299887661,10.954213872129856,0.5984103282295447
3.0,20.447101403148356,0.4657350120935697,0.012234004208070783,10.953733474387194,0.5984278754046803
4.0,20.450800837022037,0.4659124385848436,0.012246134672872076,10.95325276420186,0.5984450362735748
5.0,20.454500352247106,0.46608990663701205,0.012244847082253738,10.952772018079,0.5984614935606711
6.0,20.458199600893007,0.4662673939233679,0.012240973541597203,10.952291281205165,0.5984733972913734
7.0,20.461898510539598,0.4664448956362635,0.012236425835248322,10.95181056407783,0.5984837942467712
8.0,20.46559705919206,0.4666224102849219,0.012231623336016826,10.951329870343852,0.5984924291975816
9.0,20.46929523821543,0.4667999373356415,0.012226694719469508,10.950849201817034,0.5985038446052658
10.0,20.472993044167282,0.46697747653991595,0.01222171036013249,10.950368559366078,0.59851440222457
11.0,20.47669047576417,0.467155027785463,0.012216697074014165,10.949887943499313,0.5985250172265478
12.0,20.480387531652966,0.46733259094616814,0.01221165747736174,10.949407354591045,0.5985353066610933
13.0,20.48408421059915,0.4675101659161675,0.012206599239069882,10.948926792907377,0.5985453588959452
14.0,20.487780511738322,0.4676877526003131,0.012201534579452087,10.948446258631497,0.5985552589081692
15.0,20.491476434254153,0.4678653509136323,0.012196463271142242,10.947965751910976,0.5985650092913567
16.0,20.495171977495495,0.4680429607839711,0.012191389893898185,10.947485272864371,0.5985746223734288
17.0,20.498867140826704,0.4682205821402479,0.012186310760027368,10.947004821632977,0.5985842124907247
18.0,20.50256192363275,0.4683982149122923,0.012181223857121089,10.946524398371437,0.598593731462253
19.0,20.50625632529924,0.4685758590304924,0.012176136077883372,10.946044003182527,0.5986031027208318
20.0,20.50995034521423,0.46875351442547525,0.012171049445968559,10.945563636155258,0.5986124864948955
21.0,20.513643982767565,0.4689311810280297,0.012165961814987048,10.945083297375255,0.598621967904125
22.0,20.517337237350326,0.469108858769059,0.012160873708591157,10.944602986939428,0.5986314924397246
23.0,20.52103010835446,0.46928654757953775,0.012155786774642309,10.944122704932049,0.5986409506990341
24.0,20.52472259516462,0.4694642473897304,0.012150700699427412,10.943642451439613,0.5986503171333674
25.0,20.528414697158478,0.46964195812922355,0.012145615124497371,10.943162226551054,0.5986596325771113
26.0,20.53210641372997,0.46981967972911826,0.012140529808875039,10.942682030354646,0.5986689748536383
27.0,20.535797744273168,0.46999741212050994,0.01213544471633841,10.94220186293496,0.5986783553100884
28.0,20.539488688182193,0.4701751552344839,0.012130360101091081,10.941721724374947,0.5986877078825378
29.0,20.543179244851157,0.4703529090021059,0.012125275951601608,10.94124161475606,0.5986970028813905
30.0,20.546869413674123,0.470530673354411,0.012120192241087223,10.940761534157723,0.598706178169129
31.0,20.55055919404505,0.47070844822241426,0.012115109606194625,10.940281482659648,0.5987153405112918
32.0,20.55424858535777,0.4708862335370916,0.012110028168767412,10.939801460341744,0.5987244621962267
33.0,20.55793758700598,0.47106402922938867,0.012104947931678262,10.939321467283824,0.5987335610102794
34.0,20.561626198373666,0.47124183522913654,0.012099868637595304,10.938841503567392,0.5987427492095103
35.0,20.565314418851624,0.4714196514669066,0.012094790468303878,10.938361569272596,0.5987519226105938
36.0,20.569002247833247,0.4715974778735552,0.012089712792279243,10.937881664479049,0.5987610244988785
37.0,20.57268968471287,0.4717753143801342,0.012084636219968532,10.937401789266534,0.5987701123105044
38.0,20.576376728889,0.47195316091860745,0.012079560661581902,10.936921943715694,0.5987790825357057
39.0,20.5800633797545,0.4721310174197078,0.01207448585382191,10.936442127909634,0.598787951095604
40.0,20.583749636702045,0.47230888381412695,0.012069412199295578,10.935962341928002,0.5987968365574577
41.0,20.587435499124066,0.4724867600325156,0.012064339732735525,10.935482585850142,0.5988057167664378
42.0,20.59112096641281,0.47266464600548547,0.012059268453834367,10.9350028597554,0.5988144769758382
43.0,20.594806037960275,0.47284254166360357,0.012054198362102083,10.934523163723131,0.5988232660645633
44.0,20.598490713158277,0.47302044693740014,0.012049129456894814,10.9340434978327,0.598832021634951
45.0,20.602174991398385,0.4731983617573649,0.012044061737439537,10.933563862163485,0.5988407633806895
46.0,20.60585887207196,0.4733762860539404,0.012038995202854813,10.933084256794876,0.5988495716464052
47.0,20.60954235457014,0.47355421975753426,0.012033929852168558,10.932604681806286,0.5988584051502516
48.0,20.613225438283838,0.47373216279851244,0.012028865684333197,10.932125137277138,0.5988671998076848
49.0,20.616908122603753,0.4739101151071954,0.012023802698238654,10.931645623286887,0.5988759032190475
50.0,20.62059040692036,0.474088076613868,0.012018740892723739,10.931166139914998,0.598884880200293
51.0,20.624272290623914,0.47426604724877275,0.012013680266585869,10.930686687240968,0.5988940864045879
52.0,20.627953773104437,0.4744440269421086,0.01200862064810297,10.930207265340979,0.5989034723258055
53.0,20.63163485375174,0.4746220156240377,0.012003562202682661,10.929727874294562,0.5989128169766192
54.0,20.635315531955413,0.47480001322467985,0.011998504930324226,10.929248514181294,0.5989220901090092
55.0,20.638995807104813,0.4749780196741127,0.011993448645828554,10.928769185078513,0.5989314105991186
56.0,20.642675678589086,0.47515603490237757,0.011988393529455353,10.928289887065828,0.5989409300437681
57.0,20.64635514579715,0.47533405883946944,0.011983339485271211,10.927810620222374,0.5989510387881739
58.0,20.65003420811771,0.4755120914153508,0.011978286433152416,10.927331384627019,0.5989609049118104
59.0,20.653712864939248,0.47569013255993875,0.011973234224159985,10.926852180359578,0.5989706463313464
60.0,20.65739111565002,0.4758681822031117,0.011968183169155797,10.926373007499832,0.5989800822763189
61.0,20.66106895963806,0.4760462402747056,0.01196313328796673,10.925893866127534,0.5989887871181904
62.0,20.664746396291203,0.47622430670452287,0.011958084580232944,10.925414756322462,0.5989971243931242
63.0,20.668423424997044,0.4764023814223201,0.011953036920485136,10.924935678164951,0.5990055809037719
64.0,20.67210004514298,0.4765804643578166,0.011947990376940575,10.924456631735065,0.5990142474143202
65.0,20.675776256116187,0.4767585554406943,0.011942945010182263,10.923977617112637,0.5990229037234502
66.0,20.679452057303614,0.4769366546005955,0.011937900820096718,10.923498634377536,0.5990316093593254
67.0,20.68312744809202,0.4771147617671181,0.011932857806569644,10.923019683609652,0.5990402591950509
68.0,20.686802427867924,0.477292876869827,0.011927815969486619,10.922540764888913,0.5990487913691954
69.0,20.69047699601765,0.47747099983824376,0.011922775308733988,10.922061878295269,0.5990572561631115
70.0,20.694151151927297,0.47764913060185665,0.011917735824199563,10.921583023908703,0.5990656574933392
71.0,20.69782489498275,0.47782726909011036,0.01191269751577345,10.921104201809229,0.5990739714187602
72.0,20.701498224569693,0.4780054152324141,0.011907660383348579,10.92062541207689,0.5990820522357228
73.0,20.705171140071577,0.4781835689581384,0.011902624372960644,10.92014665479006,0.5990898980594702
74.0,20.70884364087337,0.47836173019661565,0.011897589475279436,10.919667930028853,0.5990976211613012
75.0,20.712515726360152,0.4785398988771406,0.011892555725105537,10.919189237873525,0.5991052203867637
76.0,20.716187395916805,0.4787180749289724,0.011887523156077358,10.918710578404182,0.5991129853541745
77.0,20.719858648927985,0.478896258281325,0.011882491768125603,10.918231951700959,0.5991210634314197
78.0,20.723529484778155,0.4790744488633824,0.011877461561181864,10.91775335784402,0.5991291548865383
79.0,20.727199902851552,0.47925264660428685,0.011872432535178423,10.917274796913564,0.5991369623172126
80.0,20.730869902532227,0.47943085143314806,0.011867404690048561,10.916796268989813,0.5991444548083741
81.0,20.73453948320402,0.47960906327903086,0.01186237802572658,10.916317774153026,0.599152417997321
82.0,20.73820864425056,0.47978728207096794,0.011857352542148019,10.915839312483488,0.5991622398907327
83.0,20.74187738505527,0.4799655077379543,0.01185232823924986,10.915360884061515,0.5991709427340116
84.0,20.745545705001376,0.4801437402089473,0.011847305116970562,10.914882488967455,0.5991788869520666
85.0,20.7492136034719,0.4803219794128693,0.011842283175250275,10.914404127281683,0.5991863594976937
86.0,20.752881079849665,0.48050022527860264,0.011837262414030948,10.913925799084605,0.5991935028659097
87.0,20.756548133517274,0.4806784777349984,0.011832242828977983,10.913447504456684,0.5991999389257022
88.0,20.760214763857157,0.48085673671086443,0.011827224417652481,10.912969243478415,0.5992059715165757
89.0,20.763880970251517,0.48103500213497946,0.01182220718007312,10.912491016230332,0.5992156984444994
90.0,20.767546752082367,0.48121327393608065,0.01181719111626766,10.912012822792994,0.5992241779696255
91.0,20.771212108731525,0.4813915520428717,0.011812176226273004,10.911534663246986,0.5992320065101217
92.0,20.774877039580613,0.48156983638402,0.011807162510135317,10.911056537672927,0.5992394965964042
93.0,20.77854154401105,0.481748126888156,0.011802149967909981,10.91057844615146,0.5992467251532528
94.0,20.78220562140403,0.4819264234838787,0.01179713859966172,10.910100388763261,0.5992544074271016
95.0,20.785869271140605,0.48210472609974825,0.011792128405464567,10.909622365589033,0.5992623697620072
96.0,20.78953249260159,0.4822830346642893,0.011787119350958782,10.90914437670949,0.5992704782696535
97.0,20.793195285167624,0.4824613491059919,0.011782111443975705,10.90866642220537,0.5992787425324753
98.0,20.79685764821912,0.482639669353312,0.011777104711037226,10.908188502157447,0.5992871731716488
99.0,20.800519581136342,0.4828179953346711,0.011772099152294569,10.907710616646527,0.599295751803271
100.0,20.80418108329934,0.4829963269784536,0.011767094767908243,10.90723276575344,0.5993043222002332
101.0,20.807842154087957,0.4831746642130111,0.01176209155804811,10.906754949559046,0.5993128041704969
102.0,20.811502792881853,0.4833530069666618,0.011757089521015514,10.90627716814424,0.5993211958845371
103.0,20.81516299906052,0.4835313551676843,0.01175208865550509,10.905799421589952,0.5993293895976967
104.0,20.81882277200321,0.48370970874433006,0.011747088961847132,10.905321709977141,0.5993373932159333
105.0,20.822482111089027,0.483888067624811,0.011742090436964512,10.904844033386775,0.5993453450325692
106.0,20.826141015696862,0.4840664317373092,0.011737093080441042,10.904366391899842,0.5993537028685063
107.0,20.829799485205438,0.4842448010099693,0.011732096892743397,10.903888785597358,0.5993634081380623
108.0,20.833457518993267,0.4844231753709039,0.011727101874359502,10.903411214560364,0.5993729548368262
109.0,20.83711511643868,0.484601554748197,0.011722108025344112,10.902933678869935,0.5993819730254731
110.0,20.840772276919832,0.4847799390698877,0.011717115340614532,10.902456178607206,0.5993906063119429
111.0,20.844428999814674,0.4849583282639917,0.01171212381080901,10.901978713853229,0.5993993528813899
112.0,20.848085284500975,0.4851367222584877,0.011707133414666721,10.901501284688836,0.5994078818357608
113.0,20.851741130356338,0.48531512098132484,0.01170214418573619,10.90102389119525,0.5994161225808298
114.0,20.855396536758136,0.4854935243604137,0.011697156093763678,10.900546533452976,0.5994245296303564
115.0,20.85905150308362,0.4856719323236363,0.011692169158035278,10.900069211542991,0.5994334847601039
116.0,20.86270602870981,0.48585034479884137,0.011687183392183418,10.899591925546606,0.5994425869017289
117.0,20.86636011301355,0.48602876171384585,0.01168219879696945,10.899114675545151,0.5994513529651075
118.0,20.87001375537152,0.4862071829964327,0.011677215373171903,10.898637461619993,0.5994594162139929
119.0,20.873666955160196,0.4863856085743537,0.011672233121585435,10.898160283852512,0.5994673734340165
120.0,20.877319711755895,0.4865640383753303,0.011667252043020193,10.897683142324123,0.5994752600116328
121.0,20.88097202453474,0.4867424723270463,0.011662272138300636,10.89720603711626,0.5994830390766915
122.0,20.884623892872675,0.4869209103571622,0.011657293408265011,10.89672896831038,0.5994907897110137
123.0,20.888275316145474,0.48709935239330043,0.01165231585376404,10.896251935987975,0.5994985979523357
124.0,20.891926293728716,0.4872777983630548,0.011647339475660249,10.895774940230545,0.5995066535502134
125.0,20.89557682499782,0.48745624819398775,0.01164236427482684,10.895297981119631,0.5995150821740439
126.0,20.899226909328025,0.48763470181363006,0.01163739025214668,10.894821058736788,0.5995234332810526
127.0,20.902876546094383,0.4878131591494806,0.011632417407251166,10.894344173163587,0.5995316652601721
128.0,20.90652573467178,0.48799162012900993,0.011627445739691687,10.893867324481612,0.5995398150884682
129.0,20.910174474434914,0.4881700846796532,0.011622475250385296,10.893390512772468,0.5995479362288226
130.0,20.913822764758333,0.48834855272882316,0.011617505932187478,10.892913738117066,0.5995560579577003
131.0,20.917470605016387,0.48852702420389377,0.01161253777002986,10.892437000595008,0.599564200749828
132.0,20.92111799458326,0.48870549903221133,0.011607570787420085,10.891960300287977,0.5995723845787705
133.0,20.92476493283296,0.48888397714109527,0.011602604985330573,10.891483637277679,0.599580595437902
134.0,20.928411419139326,0.48906245845783175,0.011597640364737212,10.891007011645847,0.5995888679125418
135.0,20.93205745287603,0.48924094290967785,0.0115926769266183,10.890530423474239,0.5995968857449453
136.0,20.93570303341657,0.4894194304238584,0.011587714671953544,10.890053872844632,0.5996046120277883
137.0,20.939348160134266,0.48959792092757376,0.011582753600413827,10.889577359838825,0.5996123519753401
138.0,20.942992832402275,0.489776414347993,0.011577793708760387,10.88910088453863,0.5996203428752587
139.0,20.946637049593598,0.4899549106122514,0.011572834998036253,10.888624447025878,0.5996283708488028
140.0,20.950280811081047,0.49013340964746427,0.011567877469286506,10.888148047382426,0.5996367768312219
141.0,20.953924116237275,0.49031191138070684,0.011562921123556984,10.887671685690151,0.599645673167831
142.0,20.957566964434772,0.4904904157390351,0.011557965961892964,10.887195362030953,0.5996543987113422
143.0,20.96120935504586,0.49066892264947204,0.011553011985337694,10.886719076486752,0.599662858701584
144.0,20.964851287442684,0.49084743203901104,0.011548059194931124,10.886242829139492,0.5996711053953572
145.0,20.968492760997254,0.4910259438346191,0.011543107591708408,10.885766620071141,0.5996791520760245
146.0,20.972133775081375,0.49120445796323325,0.01153815717603744,10.885290449363676,0.5996871377477092
147.0,20.975774329066716,0.49138297435176587,0.011533207948410805,10.884814317099094,0.5996949001482451
148.0,20.979414422324787,0.4915614929270952,0.011528259909846695,10.884338223359409,0.5997023166542115
149.0,20.98305405422692,0.4917400136160806,0.011523313061353893,10.88386216822666,0.5997093754828505
150.0,20.986693224144275,0.49191853634554267,0.011518367403930148,10.883386151782906,0.5997162789244881
151.0,20.990331931447894,0.4920970610422828,0.011513422938560797,10.882910174110233,0.5997232193397889
152.0,20.993970175508608,0.4922755876330734,0.011508479666217312,10.88243423529074,0.5997299183783958
153.0,20.997607955697127,0.492454116044659,0.011503537587855816,10.881958335406557,0.5997368831559061
154.0,21.00124527138398,0.4926326462037544,0.011498596704415704,10.88148247453983,0.5997436870450835
155.0,21.004882121939538,0.4928111780370541,0.011493657015346008,10.881006652772715,0.5997502806149765
156.0,21.008518506734035,0.4929897114712152,0.011488718485896726,10.880530870187084,0.5997566823379841
157.0,21.01215442513752,0.49316824643287677,0.011483781153723512,10.88005512686515,0.5997630040267746
158.0,21.015789876519918,0.49334678284864886,0.011478845019715998,10.879579422889151,0.5997694368246922
159.0,21.019424860250968,0.4935253206451171,0.011473910084740378,10.879103758341346,0.599775896772578
160.0,21.02305937570027,0.4937038597488366,0.011468976349637961,10.878628133304014,0.5997825333978689
161.0,21.026693422237273,0.4938824000863404,0.011464043815223859,10.878152547859463,0.5997897255997341
162.0,21.030326999231256,0.49406094158413166,0.011459112475013163,10.87767700209006,0.5997973426202543
163.0,21.033960106051353,0.49423948416869035,0.011454182328632842,10.877201496078206,0.5998055074249304
164.0,21.037592742066554,0.49441802776647337,0.011449253376911843,10.876726029906319,0.5998136816877788
165.0,21.04122490664569,0.4945965723039034,0.011444325620657963,10.876250603656844,0.5998219165199622
166.0,21.04485659915744,0.49477511770738797,0.01143939906065666,10.875775217412244,0.5998303089202625
167.0,21.048487818970333,0.4949536639033049,0.011434473695435293,10.875299871254997,0.5998386619856708
168.0,21.05211856545275,0.49513221081800457,0.011429549525444638,10.874824565267604,0.599847163393623
169.0,21.05574883797292,0.49531075837781663,0.011424626551412019,10.874349299532586,0.5998555977412942
170.0,21.059378635898923,0.49548930650904294,0.011419704772049134,10.87387407413247,0.5998639448001575
171.0,21.063007958598703,0.49566785513795913,0.011414784186550979,10.873398889149772,0.5998721865111458
172.0,21.066636805440044,0.495846404190825,0.011409864759313972,10.87292374466602,0.5998802972221926
173.0,21.070265175790578,0.49602495359386595,0.01140494652795056,10.872448640763798,0.5998885636778832
174.0,21.073893069017803,0.49620350327328966,0.011400029493125127,10.871973577525718,0.5998968671374041
175.0,21.077520484489067,0.49638205315527495,0.011395113630226342,10.87149855503344,0.5999051106221367
176.0,21.081147421571572,0.49656060316598083,0.011390198962610348,10.871023573369522,0.5999132364184471
177.0,21.084773879632376,0.49673915323154105,0.011385285493757539,10.870548632616648,0.5999212922929322
178.0,21.0883998580384,0.496917703278065,0.011380373224249087,10.870073732857533,0.5999291591899408
179.0,21.09202535615642,0.49709625323163925,0.01137546215463919,10.869598874174907,0.5999369483910071
180.0,21.09565037335306,0.497274803018329,0.01137055228545457,10.869124056651525,0.5999448003251042
181.0,21.09927490899482,0.4974533525641723,0.011365643617194438,10.868649280370171,0.599952802833253
182.0,21.10289896244804,0.4976319017951871,0.01136073615033028,10.868174545413643,0.5999607867523467
183.0,21.10652253307895,0.497810450637368,0.011355829885175977,10.867699851864765,0.5999690152146074
184.0,21.110145620253608,0.49798899901668614,0.011350924821782656,10.867225199806372,0.5999770444656359
185.0,21.11376822333796,0.4981675468590909,0.01134602096055088,10.866750589321326,0.5999848028024672
186.0,21.117390341697796,0.49834609409051095,0.011341118301045476,10.8662760204925,0.5999922388079995
187.0,21.12101197469879,0.498524640636848,0.011336216743306506,10.86580149340013,0.5999992301143394
188.0,21.124633121706452,0.49870318642398526,0.011331316358185423,10.865327008126625,0.6000058342415895
189.0,21.128253782086183,0.49888173137778563,0.011326417164299434,10.864852564754928,0.6000133590128136
190.0,21.131873955203222,0.49906027542408576,0.011321519157624013,10.864378163368,0.6000211564727166
191.0,21.135493640422705,0.49923881848870266,0.011316622337089743,10.863903804048837,0.600028672718204
192.0,21.139112837109604,0.4994173604974324,0.011311726703253075,10.86342948688045,0.6000359311194913
193.0,21.142731544628774,0.4995959013760514,0.01130683225666791,10.862955211945877,0.6000431431294121
