k,PSNR,SSIM,mse,Log-Gradient,Angle
0.0,20.43662561931375,0.4652361644423944,0.0,10.955099302441752,0.5965892684489572
1.0,20.439735436981962,0.4653822109684052,0.010116971346245129,10.95469086600899,0.5983856849621713
2.0,20.443405149516508,0.4655578069204071,0.012105224640298774,10.954213764305653,0.5984103295247601
3.0,20.44710310020918,0.4657350926608164,0.012236858422553136,10.953733252707856,0.5984278770828019
4.0,20.450803715632397,0.4659125755546634,0.012250007225351656,10.953252388564827,0.5984450411400276
5.0,20.454504720950023,0.46609011483154794,0.012249738191547984,10.952771448363583,0.5984614990121824
6.0,20.458205768279992,0.4662676881749456,0.012246882745422096,10.952290477276305,0.5984734143975675
7.0,20.4619067852444,0.4664452907869749,0.012243352482598583,10.95180948578703,0.5984838149930349
8.0,20.46560774988866,0.4666229211864789,0.012239566720037063,10.951328477529508,0.598492459750065
9.0,20.469308653617087,0.4668005788492997,0.012235654108543043,10.95084745430463,0.5985038744967198
10.0,20.47300949302595,0.46697826353644345,0.012231685006630818,10.950366416968295,0.5985144414754971
11.0,20.47671026687013,0.46715597514509405,0.012227686223281332,10.9498853660161,0.5985250649441686
12.0,20.480410973834505,0.46733371355857506,0.012223660375166354,10.949404301809677,0.5985353637452074
13.0,20.48411161272215,0.4675114786804251,0.012219615126720698,10.948923224602511,0.5985454258935247
14.0,20.487812182705937,0.4676892704248677,0.012215562694218703,10.948442134565225,0.598555336531354
15.0,20.491512683006462,0.4678670887162635,0.012211502850802865,10.94796103183285,0.5985650979380762
16.0,20.495213113009235,0.4680449334917703,0.012207440173909108,10.94747991651145,0.5985747235717579
17.0,20.498913472114914,0.46822280468958005,0.012203370978884189,10.946998788729843,0.5985843254595969
18.0,20.502613759744488,0.4684007022487724,0.012199293252284934,10.946517648630262,0.5985938568776498
19.0,20.50631397531923,0.4685786261089486,0.01219521388264761,10.9460364963031,0.5986032417544175
20.0,20.5100141182626,0.4687565762099215,0.01219113489339987,10.945555331825018,0.5986126425526856
21.0,20.513714187999504,0.4689345524916388,0.012187054141002698,10.945074155269317,0.5986221428826525
22.0,20.517414183955765,0.4691125548941249,0.012182972146380514,10.944592966720627,0.5986316832015506
23.0,20.521114105557793,0.4692905833574456,0.012178890557202523,10.944111766250977,0.5986411595033158
24.0,20.524813952224363,0.46946863782093534,0.012174809060943053,10.94363055393463,0.5986505424514137
25.0,20.528513723366952,0.46964671822320564,0.012170727297889197,10.943149329848348,0.5986598769091503
26.0,20.53221341841299,0.4698248245043606,0.012166645028287354,10.94266809406825,0.5986692387115792
27.0,20.535913036789726,0.47000295660446795,0.012162562216720425,10.942186846666788,0.5986786424080476
28.0,20.539612577924142,0.47018111446354904,0.012158479114268367,10.941705587714843,0.5986880152209716
29.0,20.543312041242903,0.4703592980215756,0.012154395712259266,10.94122431728181,0.5986973285091045
30.0,20.547011426172293,0.4705375072184661,0.01215031198274238,10.940743035435103,0.5987065254235762
31.0,20.550710732138175,0.4707157419940746,0.012146228561245013,10.94026174224245,0.5987157091633167
32.0,20.554409958566,0.4708940022881954,0.012142145570160795,10.939780437771814,0.5987248536860846
33.0,20.558109104880728,0.4710722880405544,0.012138063012373315,10.939299122091088,0.5987339805442836
34.0,20.561808170497315,0.4712505991897366,0.0121339806313554,10.938817795269893,0.5987431971776339
35.0,20.56550715483717,0.47142893567503624,0.012129898607709109,10.938336457376531,0.5987523949071746
36.0,20.569206057324024,0.47160729743599,0.012125816312542703,10.937855108478798,0.5987615215322801
37.0,20.572904877382165,0.4717856844123089,0.012121734353309637,10.9373737486447,0.5987706339623496
38.0,20.57660361443981,0.4719640965445846,0.012117652641002395,10.936892377943126,0.5987796247886362
39.0,20.580302267919173,0.4721425337721416,0.012113570916091469,10.936410996445447,0.5987885174116416
40.0,20.58400083724194,0.47232099603423205,0.012109489574409995,10.935929604219655,0.5987974418324862
41.0,20.587699321829266,0.4724994832700394,0.012105408653737198,10.935448201333447,0.5988063399611038
42.0,20.591397721101767,0.47267799541866945,0.012101328153778356,10.93496678785456,0.5988151294653242
43.0,20.595096034479525,0.4728565324191591,0.012097248074055975,10.93448536385077,0.5988239505348087
44.0,20.59879426138206,0.4730350942104675,0.012093168413938553,10.934003929389903,0.5988327305920172
45.0,20.60249240122838,0.4732136807314884,0.012089089172665239,10.933522484539822,0.5988415043388834
46.0,20.60619045343691,0.4733922919210343,0.012085010349366604,10.933041029368448,0.5988503632704513
47.0,20.60988841742555,0.47357092771784876,0.012080931943082296,10.93255956394375,0.5988592288494939
48.0,20.613586292611664,0.47374958806059914,0.01207685395277626,10.932078088333752,0.5988680463440393
49.0,20.617284078412045,0.47392827288788375,0.012072776377349721,10.931596602606529,0.5988767889755576
50.0,20.62098177424293,0.4741069821382206,0.012068699215652505,10.931115106830218,0.5988858435069583
51.0,20.62467937952004,0.47428571575006334,0.012064622466492855,10.930633601073007,0.5988951058593297
52.0,20.628376893658526,0.4744644736617858,0.012060545958622304,10.930152085399813,0.5989045506047367
53.0,20.632074316072966,0.4746432558116882,0.012056469857041644,10.929670559878938,0.5989139186495905
54.0,20.63577164617743,0.4748220621379991,0.01205239416171646,10.929189024578756,0.598923241799754
55.0,20.6394688833854,0.47500089257887534,0.012048318688912457,10.928707479565457,0.5989326172605243
56.0,20.643166027109828,0.4751797470723978,0.01204424361651586,10.928225924907512,0.598942248147261
57.0,20.646863076763093,0.4753586255565762,0.012040168852095683,10.927744360672973,0.5989524240661782
58.0,20.65056003175704,0.475537527969345,0.012036094314456014,10.927262786929653,0.5989623054037035
59.0,20.654256891502957,0.47571645424856485,0.012032019858755462,10.926781203746303,0.598972080084993
60.0,20.657953655411568,0.4758954043320262,0.012027945782827128,10.926299611191748,0.5989814703841587
61.0,20.661650322893056,0.47607437815744386,0.01202387211396694,10.925818009334783,0.5989901185007537
62.0,20.665346893357043,0.47625337566246256,0.012019798851821823,10.925336398244273,0.5989985066381559
63.0,20.669043366212605,0.47643239678464777,0.012015725877581164,10.924854777989642,0.5990070490270062
64.0,20.67273974086827,0.47661144146149925,0.012011653246999276,10.92437314864014,0.5990157760369154
65.0,20.676436016732012,0.4767905096304415,0.012007581026480791,10.923891510264788,0.5990244771448466
66.0,20.68013219321125,0.47696960122882315,0.01200350921591717,10.92340986293268,0.5990332315168857
67.0,20.683828269712855,0.47714871619392346,0.011999437815198646,10.92292820671297,0.5990419125706761
68.0,20.687524245643143,0.47732785446294573,0.011995366824215176,10.922446541674882,0.599050480339698
69.0,20.69122012040788,0.477507015973024,0.011991296242856948,10.921964867887704,0.5990589841044585
70.0,20.69491589341229,0.47768620066121886,0.011987226071015445,10.92148318542079,0.5990674277583747
71.0,20.698611564061025,0.47786540846451625,0.011983156308583936,10.921001494343555,0.5990757497603835
72.0,20.702307131758204,0.47804463931983027,0.011979086955458216,10.92051979472549,0.5990838281354064
73.0,20.706002595905325,0.4782238931640068,0.011975017957170878,10.920038086634413,0.5990916604456479
74.0,20.70969795590516,0.4784031699338176,0.011970949323211308,10.919556370139889,0.5990994335309939
75.0,20.713393211160202,0.47858246956595885,0.011966881053600328,10.919074645311813,0.5991070426977868
76.0,20.71708836107238,0.4787617919970601,0.011962813198448786,10.91859291221988,0.5991150054714071
77.0,20.720783405043093,0.478941137163674,0.0119587457576883,10.91811117093385,0.5991231492739821
78.0,20.724478342473198,0.47912050500228415,0.011954678731250954,10.917629421523547,0.5991312314628612
79.0,20.72817317276296,0.47929989544930224,0.011950612119069224,10.917147664058866,0.5991389790132161
80.0,20.731867895312142,0.47947930844106246,0.011946545921076194,10.916665898609768,0.5991465732277318
81.0,20.73556250951993,0.47965874391383734,0.011942480137205556,10.916184125246282,0.5991552964278548
82.0,20.739257014784958,0.47983820180381725,0.011938414767391867,10.9157023440385,0.5991648733009787
83.0,20.742951410505338,0.48001768204712625,0.011934349811570743,10.915220555056585,0.5991733668049143
84.0,20.746645696078595,0.48019718457981764,0.011930285269678837,10.914738758370767,0.5991812061084977
85.0,20.75033987090173,0.48037670933786863,0.011926221141654153,10.914256954051343,0.5991886269404614
86.0,20.754033934371186,0.4805562562571901,0.011922157427436067,10.913775142168674,0.5991956652053955
87.0,20.757727885882865,0.48073582527361586,0.011918094121560807,10.913293322793221,0.5992017843462443
88.0,20.761421724832097,0.48091541632291457,0.011914031222701064,10.912811495995518,0.5992089992374457
89.0,20.765115450613692,0.48109502934077836,0.01190996873087221,10.912329661846162,0.5992187817222141
90.0,20.7688090626219,0.4812746642628291,0.011905906646098453,10.911847820415819,0.5992269594697771
91.0,20.77250256025041,0.4814543210246202,0.011901844968412748,10.911365971775222,0.5992347230422811
92.0,20.77619594289238,0.4816339995616321,0.011897783697856953,10.91088411599517,0.599242157436983
93.0,20.779889209940407,0.48181369980927236,0.01189372283448183,10.910402253146529,0.5992494932378137
94.0,20.78358236078654,0.4819934217028812,0.011889662378347146,10.90992038330023,0.5992574120625319
95.0,20.787275394822302,0.48217316517772474,0.011885602329521634,10.90943850652727,0.5992655312691201
96.0,20.79096831143863,0.4823529301690008,0.01188154265065776,10.908956622898698,0.5992737242556363
97.0,20.794661110025938,0.48253271661183555,0.011877483355920902,10.90847473248562,0.5992821205617357
98.0,20.798353789974083,0.48271252444128226,0.011873424468465583,10.907992835359224,0.5992907374466933
99.0,20.802046350672384,0.48289235359232535,0.011869365988436154,10.907510931590762,0.5992993895556064
100.0,20.805738791509608,0.4830722039998809,0.011865307915986058,10.90702902125155,0.5993079910295838
101.0,20.809431111873963,0.48325207559878897,0.011861250251277636,10.906547104412972,0.5993165486685677
102.0,20.81312331115312,0.48343196832382707,0.011857192991795138,10.906065181146491,0.5993249021281069
103.0,20.816815388734202,0.4836118821096936,0.01185313613704864,10.90558325152364,0.5993330921152584
104.0,20.820507344003786,0.48379181689102374,0.011849079687109606,10.905101315616013,0.5993411197637522
105.0,20.824199176347882,0.4839717726023778,0.011845023638280097,10.904619373495255,0.5993490923874846
106.0,20.827890885152,0.48415174917824805,0.011840967990998869,10.904137425233069,0.5993583813491702
107.0,20.831582469801045,0.4843317465530585,0.011836912745726052,10.903655470901228,0.5993682399365655
108.0,20.835273929679413,0.48451176466116014,0.011832857902942634,10.903173510571568,0.5993775875369657
109.0,20.83896526417095,0.48469180343683327,0.011828803460147889,10.902691544316014,0.5993864638189178
110.0,20.84265647265893,0.48487186281429295,0.011824749414766633,10.902209572206576,0.5993952029601871
111.0,20.846347554526123,0.48505194272767876,0.011820695757742196,10.901727594315219,0.5994039574997749
112.0,20.850038509154704,0.48523204311106527,0.011816642467521904,10.901245610713724,0.5994124148542201
113.0,20.853729335926342,0.4854121638984578,0.011812589577618353,10.900763621474304,0.5994206431476821
114.0,20.857420034222134,0.48559230502378664,0.011808537054946677,10.90028162666842,0.5994296071226579
115.0,20.861110603422638,0.485772466420918,0.011804484924706909,10.899799626368184,0.5994387353569258
116.0,20.864801042907885,0.48595264802364474,0.011800433197420893,10.899317620646018,0.5994478170175384
117.0,20.86849135205732,0.48613284976569676,0.011796381873842273,10.898835609574403,0.5994562146465511
118.0,20.87218153024987,0.48631307158072645,0.01179233095474154,10.898353593225886,0.599464255668355
119.0,20.875871576863926,0.48649331340232416,0.0117882804409051,10.897871571673079,0.5994722544190827
120.0,20.879561491277304,0.48667357516400517,0.011784230333134525,10.89738954498866,0.599480152464576
121.0,20.8832512728673,0.48685385679922133,0.011780180632245606,10.89690751324537,0.599487974435339
122.0,20.886940921010652,0.48703415824135354,0.011776131339067478,10.896425476516013,0.5994958641473471
123.0,20.89063043508355,0.4872144794237119,0.011772082454441668,10.895943434873463,0.5995037815927756
124.0,20.894319814461653,0.48739482027954056,0.011768033979221134,10.89546138839065,0.5995123064173592
125.0,20.898009058520067,0.48757518074201184,0.011763985914269331,10.894979337140576,0.599520802567484
126.0,20.901698166633352,0.48775556074423276,0.011759938260459067,10.894497281196305,0.5995291521802487
127.0,20.90538713817552,0.4879359602192424,0.011755891016235843,10.894015220630942,0.5995374223125868
128.0,20.909075972520053,0.4881163791000082,0.01175184418230271,10.893533155517657,0.5995456247354084
129.0,20.912764669039877,0.4882968173194282,0.011747797759566515,10.893051085929683,0.5995538426494398
130.0,20.916453227107382,0.48847727481033737,0.011743751731671302,10.892569011938736,0.5995620714730415
131.0,20.920141646094393,0.48865775150550234,0.011739706102292679,10.892086933616968,0.5995703575754626
132.0,20.923829925372214,0.48883824733761366,0.011735660885369283,10.891604851037808,0.5995786494525925
133.0,20.9275180643116,0.48901876223930413,0.011731616081861615,10.891122764274753,0.5995870187618295
134.0,20.93120606228274,0.48919929614313323,0.011727571692733422,10.890640673401364,0.599595209523266
135.0,20.93489391865532,0.4893798489815911,0.011723527718950664,10.890158578491265,0.5996030803993757
136.0,20.938581632798446,0.489560420687102,0.01171948416148028,10.889676479618146,0.5996108659361247
137.0,20.942269204080702,0.48974101119202645,0.01171544101594938,10.889194376855745,0.5996189426591878
138.0,20.945956631870114,0.48992162042865367,0.011711398283121083,10.888712270277862,0.5996270368523672
139.0,20.949643915534185,0.4901022483292034,0.011707355964028872,10.888230159958363,0.5996354585184193
140.0,20.953331054439857,0.49028289482583176,0.011703314059708125,10.887748045971177,0.5996444253498657
141.0,20.95701804795354,0.49046355985062445,0.011699272571194552,10.887265928390295,0.5996533061594702
142.0,20.96070489544109,0.49064424333560197,0.011695231499522906,10.886783807289772,0.5996618982236684
143.0,20.964391596267834,0.4908249452127184,0.011691190845725665,10.886301682743726,0.5996702772449156
144.0,20.968078149798547,0.49100566541386015,0.011687150610831414,10.885819554826337,0.5996784408077919
145.0,20.971764555397474,0.4911864038708446,0.011683110795863597,10.885337423611853,0.5996865472309248
146.0,20.97545081242831,0.4913671605154251,0.011679071400898945,10.884855289174569,0.5996944398076484
147.0,20.9791369202542,0.4915479352792857,0.011675032426696867,10.884373151588841,0.599701969154629
148.0,20.98282287823775,0.4917287280940455,0.011670993874262467,10.883891010929093,0.5997091400607675
149.0,20.986508685741057,0.49190953889125777,0.011666955744590736,10.883408867269804,0.5997161392767896
150.0,20.990194342125626,0.4920903676024066,0.011662918038665138,10.882926720685525,0.5997231622674319
151.0,20.993879846752446,0.4922712141589094,0.011658880757456086,10.882444571250867,0.5997299403247577
152.0,20.997565198981974,0.49245207849212186,0.011654843901919468,10.881962419040505,0.5997369897971493
153.0,21.001250398174108,0.4926329605333293,0.011650807472995097,10.88148026412918,0.5997438812414144
154.0,21.00493544368822,0.4928138602137504,0.011646771471605403,10.880998106591694,0.599750550877748
155.0,21.008620334883133,0.49299477746454173,0.011642735877545647,10.880515946502726,0.5997570368362762
156.0,21.01230507111712,0.49317571221679163,0.01163870069549563,10.880033783937058,0.5997634434920927
157.0,21.015989651747944,0.4933566644015189,0.011634665943273647,10.879551618969689,0.5997699589082962
158.0,21.019674076132798,0.49353763394968425,0.011630631621749122,10.87906945167568,0.5997765301425441
159.0,21.02335834362835,0.4937186207921753,0.01162659773176718,10.878587282130157,0.5997832544249875
160.0,21.02704245359073,0.49389962485981864,0.011622564274147148,10.87810511040831,0.5997906162576728
161.0,21.030726405375525,0.494080646083372,0.011618531241773965,10.877622936585444,0.5997984507948205
162.0,21.034410198337774,0.49426168439353263,0.011614498634784884,10.877140760736932,0.5998067786941988
163.0,21.03809383183198,0.49444273972092595,0.011610466454014222,10.87665858293821,0.5998150593040527
164.0,21.041777305212122,0.4946238119961183,0.011606434700275359,10.87617640326478,0.5998234679073416
165.0,21.04546061783163,0.4948049011496076,0.011602403374359721,10.875694221792209,0.5998319672724702
166.0,21.049143769043383,0.49498600711182467,0.01159837247485387,10.875212038596118,0.5998404523747536
167.0,21.052826758199743,0.49516712981313865,0.011594342002130737,10.874729853752195,0.5998490994227195
168.0,21.056509584652517,0.4953482691838545,0.011590311956923685,10.874247667336194,0.599857632934624
169.0,21.060192247752983,0.49552942515421067,0.011586282337808411,10.873765479423913,0.5998660997683949
170.0,21.06387474685188,0.4957105976543788,0.011582253145168715,10.873283290091214,0.5998744288846846
171.0,21.06755708129939,0.49589178661447103,0.011578224351196955,10.872801099413214,0.5998827311179987
172.0,21.071239250445203,0.4960729919645286,0.011574195975105462,10.872318907465631,0.5998911439622104
173.0,21.074921253638415,0.4962542136345347,0.011570168027101046,10.871836714324521,0.5998995513173394
174.0,21.078603090227624,0.49643545155440466,0.011566140488440364,10.87135452006525,0.5999078885385984
175.0,21.08228475956087,0.4966167056539908,0.01156211337061682,10.87087232476367,0.5999161382881187
176.0,21.08596626098567,0.4967979758630787,0.0115580866831034,10.870390128496048,0.5999241617350117
177.0,21.089647593848987,0.4969792621113931,0.011554060426486901,10.869907931338714,0.5999321769952085
178.0,21.093328757497268,0.49716056432859407,0.011550034601326668,10.869425733368066,0.5999401023329936
179.0,21.097009751276403,0.4973418824442781,0.011546009208154117,10.868943534660572,0.5999481887416077
180.0,21.100690574531757,0.49752321638797686,0.0115419842474726,10.868461335292759,0.5999563474785904
181.0,21.104371226608166,0.49770456608915553,0.011537959719757096,10.86797913534123,0.5999645648972091
182.0,21.108051706849924,0.4978859314772242,0.011533935625225242,10.867496934882643,0.5999728742615947
183.0,21.11173201460078,0.4980673124815222,0.011529911964021094,10.86701473399372,0.5999809056801347
184.0,21.115412149203966,0.49824870903132523,0.011525888736546882,10.86653253275125,0.5999886544230152
185.0,21.119092110002157,0.4984301210558531,0.011521865941684565,10.866050331232074,0.599995998004032
186.0,21.12277189633753,0.49861154848425304,0.011517843519064104,10.865568129511368,0.6000028775130571
187.0,21.126451507551675,0.498792991245617,0.01151382147028063,10.86508592766465,0.6000098798436166
188.0,21.130130942985694,0.4989744492689676,0.011509799842888259,10.864603725768966,0.6000179720022283
189.0,21.133810201980122,0.4991559224832718,0.011505778632405301,10.864121523901439,0.6000257134997781
190.0,21.137489283874977,0.4993374108174271,0.011501757839381975,10.863639322139253,0.6000331904091502
191.0,21.141168188009743,0.49951891420027134,0.011497737464365741,10.863157120559661,0.6000405445200209
192.0,21.144846913723363,0.49970043256058033,0.011493717507901192,10.862674919239984,0.6000478245878972
193.0,21.148525460354257,0.4998819658270663,0.011489697970530066,10.86219271825761,0.6000549656216824
