k,PSNR,SSIM,mse,Log-Gradient,Angle
0.0,20.43662561931375,0.4652361644423944,0.0,10.955099302441752,0.5965892684489572
1.0,20.439735083681793,0.46538219437518275,0.01011582210831491,10.954690912412877,0.5983856839753705
2.0,20.443404025955985,0.46555775377509406,0.012102716559523852,10.954213911332795,0.5984103277586054
3.0,20.447100786150216,0.46573498280183334,0.012232966540443653,10.953733554982838,0.5984278747945467
4.0,20.450799790488503,0.4659123887887455,0.012244726860399856,10.953252900766588,0.5984450345037768
5.0,20.45449876404235,0.46608983094963374,0.012243069087366455,10.952772225194117,0.5984614915784982
6.0,20.45819735887636,0.4662672869547022,0.012238825574361316,10.952291573455541,0.5984733910732857
7.0,20.46189550256781,0.46644475199336966,0.01223390817431229,10.951810956051556,0.5984837867037205
8.0,20.46559317312006,0.46662222457198493,0.012228736280290862,10.951330376632107,0.5984924180926532
9.0,20.46929036189669,0.4667997041539862,0.01222343857681895,10.950849837014026,0.5985038337373633
10.0,20.47298706545401,0.4669771904880371,0.012218085444196027,10.950369338068993,0.5985143879561584
11.0,20.476683282507476,0.46715468345903516,0.01221270370093599,10.949888880308293,0.5985249998817495
12.0,20.480379011702983,0.467332182938055,0.012207295963081177,10.949408464109162,0.5985352859128944
13.0,20.484074251805193,0.4675096888164411,0.012201869901097766,10.948928089740606,0.5985453345446295
14.0,20.48776900194901,0.4676872009962638,0.012196437736717882,10.948447757388708,0.5985552306954561
15.0,20.491463261317534,0.4678647193897796,0.012190999242339783,10.947967467203908,0.5985649770726789
16.0,20.49515702925917,0.4680422439220809,0.012185558998515318,10.947487219307618,0.5985745855935143
17.0,20.498850305137974,0.46821977451934327,0.012180113316395619,10.947007013843985,0.5985841714336222
18.0,20.502543088338705,0.46839731110866323,0.012174660183897405,10.946526850970477,0.5985936858939701
19.0,20.50623537824688,0.4685748536177072,0.01216920649519008,10.94604673079267,0.5986030522235476
20.0,20.509927174250628,0.4687524019743978,0.01216375427395989,10.94556665340238,0.5986124298099632
21.0,20.513618475739946,0.4689299561068281,0.012158301372729247,10.945086618888013,0.5986219043971464
22.0,20.517309282106204,0.46910751594322037,0.012152848316091968,10.944606627349241,0.5986314231132583
23.0,20.52099959274178,0.4692850814118756,0.01214739675192875,10.944126678873095,0.5986408748364089
24.0,20.52468940703183,0.4694626524404024,0.012141946366043632,10.943646773548812,0.5986502352883768
25.0,20.528378724354717,0.4696402289557378,0.01213649680039633,10.943166911468044,0.5986595437912858
26.0,20.532067544105143,0.4698178108863545,0.012131047813513662,10.942687092721782,0.5986688794448862
27.0,20.53575586567809,0.46999539816072433,0.012125599368830085,10.942207317397287,0.5986782509833144
28.0,20.539443688468708,0.47017299070732493,0.012120151721634278,10.941727585580198,0.5986875962384787
29.0,20.543131011872266,0.470350588454622,0.012114704859303629,10.941247897354632,0.5986968845516292
30.0,20.54681783528409,0.47052819133107376,0.012109258755429378,10.940768252802668,0.5987060519716633
31.0,20.55050415809955,0.4707057992651178,0.012103814047014496,10.94028865200666,0.5987152066169932
32.0,20.554189979713993,0.4708834121851735,0.012098370855651526,10.93980909504914,0.5987243200913747
33.0,20.55787529952276,0.4710610300196394,0.012092929184158056,10.939329582012531,0.5987334090453609
34.0,20.5615601169116,0.4712386526958106,0.012087488774858369,10.938850112980944,0.5987425865689016
35.0,20.56524443127322,0.47141628014174036,0.012082049809917296,10.9383706880371,0.5987517510608096
36.0,20.568928242003018,0.47159391228577324,0.012076611656800592,10.937891307263184,0.598760844437436
37.0,20.572611548497477,0.4717715490564664,0.0120711749269941,10.937411970741538,0.5987699227092229
38.0,20.576294350157372,0.47194919038330063,0.012065739530371987,10.93693267855534,0.5987788856174499
39.0,20.57997664637796,0.4721268361945335,0.012060305202215202,10.936453430790237,0.5987877452719367
40.0,20.583658436554423,0.47230448641840184,0.012054872347543353,10.935974227528376,0.5987966176987031
41.0,20.58733972008184,0.47248214098310787,0.012049440999929821,10.935495068851598,0.5988054904507804
42.0,20.591020496355213,0.47265979981682965,0.012044011159011419,10.935015954841734,0.5988142402975446
43.0,20.594700764769446,0.47283746284771516,0.012038582824242253,10.93453688558061,0.5988230172345569
44.0,20.598380524719353,0.47301513000388556,0.012033155994922764,10.934057861150041,0.5988317639940555
45.0,20.602059775599656,0.47319280121343216,0.012027730670224203,10.933578881631847,0.5988404940933301
46.0,20.605738516804983,0.47337047640442015,0.012022306849209472,10.933099947107847,0.5988492839024772
47.0,20.60941674772986,0.4735481555048849,0.012016884530850949,10.93262105765986,0.5988581061538101
48.0,20.613094467768715,0.47372583844283217,0.012011463714045456,10.932142213369715,0.5988668920918921
49.0,20.6167716763159,0.4739035251462422,0.012006044397627494,10.93166341431924,0.5988755834667029
50.0,20.620448372765647,0.4740812155430644,0.012000626580380473,10.931184660590274,0.5988845297476135
51.0,20.624124556512115,0.47425890956122435,0.011995210261046451,10.930705952264665,0.5988937167821095
52.0,20.627800226949354,0.47443660712861435,0.011989795267679302,10.930227289420937,0.5989030804821674
53.0,20.631475383471315,0.47461430817310485,0.011984381765783649,10.929748672140942,0.5989124170321413
54.0,20.635150025471862,0.4747920126225324,0.011978969755319509,10.92927010050657,0.598921672155897
55.0,20.638824152344757,0.4749697204047086,0.011973559050502425,10.92879157459745,0.5989309735322725
56.0,20.64249776348367,0.47514743144741933,0.011968149832405687,10.928313094495476,0.598940462986011
57.0,20.64617085828219,0.47532514567842127,0.011962742003768434,10.927834660282041,0.598950534109615
58.0,20.64984343613379,0.47550286302544525,0.011957335484805374,10.927356272038272,0.5989603966896752
59.0,20.653515496431865,0.4756805834161906,0.011951930125035577,10.92687792984623,0.5989701244393112
60.0,20.65718703856971,0.4758583067783375,0.011946526240012485,10.926399633787913,0.5989795754586861
61.0,20.660858061940523,0.4760360330395304,0.011941123846791659,10.925921383945276,0.5989883026588475
62.0,20.664528565937424,0.4762137621273921,0.011935722944959109,10.925443180400297,0.5989966260602438
63.0,20.668198549953445,0.47639149396952046,0.011930323406567446,10.924965023235494,0.5990050585637169
64.0,20.671868013381513,0.47656922849348043,0.011924925304324019,10.924486912533085,0.5990136929493071
65.0,20.675536955614486,0.4767469656268177,0.011919528696638435,10.924008848375058,0.5990223373378224
66.0,20.679205376045132,0.4769247052970482,0.011914133583343756,10.92353083084341,0.5990310201350778
67.0,20.68287327406612,0.4771024474316607,0.011908739964272183,10.923052860020151,0.5990396579343228
68.0,20.686540649070047,0.47728019195812327,0.011903347839255972,10.922574935987313,0.5990481778172959
69.0,20.690207500449414,0.4774579388038702,0.011897957208128215,10.922097058826937,0.5990566271649843
70.0,20.693873827596644,0.47763568789631755,0.011892568070723607,10.921619228621081,0.599065015454785
71.0,20.697539629904064,0.47781343916284996,0.011887180426879225,10.921141445451818,0.5990733255969313
72.0,20.70120490676394,0.4779911925308342,0.011881794276435029,10.920663709401234,0.5990814073190994
73.0,20.70486965756643,0.4781689479276053,0.011876409565558698,10.920186020549744,0.5990892553148263
74.0,20.70853388170334,0.4783467052804789,0.011871026278012562,10.919708378979502,0.599096960103997
75.0,20.712197578566705,0.478524464516743,0.011865644461213647,10.919230784772733,0.5991045561213644
76.0,20.715860747548493,0.4787022255636639,0.011860264142748277,10.918753238011526,0.5991122556087816
77.0,20.719523388040592,0.4788799883484778,0.01185488532249489,10.918275738777986,0.599120318109026
78.0,20.723185499434805,0.47905775279840257,0.011849508000332805,10.917798287154232,0.5991283959290526
79.0,20.72684708112287,0.4792355188406248,0.011844132176142186,10.9173208832224,0.5991362185864896
80.0,20.730508132496436,0.4794132864023175,0.0118387578498043,10.916843527064641,0.5991436659445122
81.0,20.734168652947076,0.47959105541061825,0.011833385021201553,10.91636621876312,0.5991513706375463
82.0,20.737828641866308,0.4797688257926489,0.011828013690217715,10.915888958400016,0.5991612594926027
83.0,20.741488098645554,0.47994659747550267,0.011822643856738044,10.91541174605753,0.5991700480089807
84.0,20.745147022676168,0.4801243703862552,0.011817275520649487,10.914934581817866,0.5991780354065026
85.0,20.748805413349434,0.4803021444519513,0.011811908681840745,10.914457465763252,0.5991855328967195
86.0,20.752463270056566,0.48047991959961805,0.01180654334020247,10.913980397975928,0.5991927006350407
87.0,20.7561205921887,0.4806576957562587,0.011801179491758771,10.91350337853817,0.5991992321188717
88.0,20.759777379136914,0.48083547284885214,0.01179581713361384,10.913026407532278,0.5992051467032636
89.0,20.763433630292205,0.4810132508043556,0.011790456265735171,10.912549485040575,0.5992145141213754
90.0,20.7670893450455,0.48119102954970067,0.011785096888099497,10.912072611145389,0.5992231828619204
91.0,20.77074452278766,0.4813688090118044,0.011779739000692754,10.911595785929064,0.5992310137876474
92.0,20.77439916290949,0.4815465891175524,0.011774382603510252,10.911119009473962,0.5992385211995426
93.0,20.778053264801713,0.48172436979381245,0.011769027696556642,10.91064228186245,0.5992457501998866
94.0,20.781706827854997,0.4819021509674312,0.0117636742798459,10.910165603176917,0.5992533147258648
95.0,20.785359851459933,0.48207993256523,0.011758322353401542,10.90968897349976,0.5992612271043862
96.0,20.789012335007058,0.4822577145140148,0.011752971883905042,10.909212392913375,0.5992693118156007
97.0,20.79266427788685,0.4824354967405633,0.011747622876816749,10.908735861500162,0.5992775129334422
98.0,20.796315679489705,0.48261327917163444,0.011742275359838376,10.90825937934255,0.5992858844455423
99.0,20.79996653920597,0.4827910617339677,0.011736929333070946,10.907782946522971,0.599294433154187
100.0,20.80361685642593,0.4829688443542781,0.011731584796624948,10.90730656312388,0.5993029772836634
101.0,20.807266630539804,0.4831466269592644,0.011726241750620259,10.906830229227737,0.599311438005393
102.0,20.810915860937772,0.48332440947559935,0.011720900193603844,10.906353944917022,0.5993198355055918
103.0,20.814564547009915,0.48350219182993476,0.01171556012391991,10.90587771027424,0.5993280316944881
104.0,20.818212688146296,0.48367997394891016,0.01171022154184849,10.905401525381905,0.5993360394095087
105.0,20.821860283736903,0.4838577557591375,0.011704884444669363,10.904925390322523,0.5993439720767623
106.0,20.82550733317165,0.48403553718720765,0.011699548831510307,10.90444930517861,0.5993520392388598
107.0,20.82915383584043,0.48421331815969765,0.011694214702787588,10.903973270032694,0.5993616314639002
108.0,20.832799791133056,0.48439109860316076,0.011688882058938676,10.903497284967308,0.5993712528373054
109.0,20.836445198439296,0.4845688784441296,0.011683550900421589,10.903021350065,0.5993803241804851
110.0,20.84009005714886,0.48474665760911945,0.011678221222133921,10.902545465408366,0.5993889831363693
111.0,20.843734366651404,0.4849244360246244,0.011672893014075585,10.902069631079904,0.5993976586214206
112.0,20.847378126336533,0.4851022136171222,0.011667566255043577,10.901593847161873,0.599406215173477
113.0,20.851021335593813,0.4852799903130685,0.01166224097854437,10.901118113736917,0.5994144830319953
114.0,20.854663993812736,0.4854577660389023,0.011656917155302544,10.900642430886966,0.5994226874903186
115.0,20.858306100382755,0.4856355407210408,0.011651594802396324,10.900166798694354,0.5994316159920509
116.0,20.86194765469328,0.4858133142858871,0.01164627393453844,10.899691217241758,0.5994406509598921
117.0,20.865588656133664,0.48599108665982166,0.011640954552439988,10.899215686611862,0.599449519390196
118.0,20.86922910409321,0.48616885776920876,0.011635636656829155,10.89874020688737,0.5994576834213311
119.0,20.872868997961184,0.48634662754039354,0.011630320248450456,10.898264778150981,0.5994656022643072
120.0,20.876508337126793,0.4865243958997039,0.01162500532806379,10.897789400485415,0.5994734739161006
121.0,20.880147120979217,0.48670216277345074,0.011619691896443601,10.897314073973392,0.5994812394032089
122.0,20.883785348907573,0.4868799280879248,0.01161437995437801,10.89683879869765,0.5994889536915976
123.0,20.887423020300936,0.4870576917694001,0.011609069502667824,10.896363574740924,0.5994967309341287
124.0,20.89106013454835,0.4872354537441366,0.011603760542125587,10.89588840218597,0.5995045958005101
125.0,20.894696691038813,0.4874132139383727,0.01159845307357464,10.895413281115541,0.599512992367747
126.0,20.898332689161272,0.48759097227833004,0.01159314709784812,10.894938211612407,0.5995213524484454
127.0,20.901968128304638,0.4877687286902181,0.011587842614954722,10.894463193759337,0.5995295726994866
128.0,20.90560300785779,0.4879464831002219,0.01158253962397394,10.893988227639088,0.5995377145678201
129.0,20.909237327209556,0.4881242354345185,0.011577238125772936,10.893513313334429,0.5995457904132756
130.0,20.912871085748733,0.4883019856192585,0.011571938116607484,10.893038450927726,0.5995538791713757
131.0,20.91650428286407,0.4884797335805895,0.01156663957433101,10.892563640499402,0.5995619805873007
132.0,20.92013691794429,0.4886574792446298,0.011561342525981531,10.892088882132255,0.5995701363883487
133.0,20.923768990378065,0.48883522253748973,0.011556046972482081,10.89161417590909,0.5995782927586161
134.0,20.927400499554047,0.4890129633852595,0.01155075291475919,10.891139521912718,0.599586524071409
135.0,20.931031444860835,0.4891907017140184,0.011545460353741958,10.89066492022596,0.5995946040097743
136.0,20.934661825687016,0.48936843744982367,0.011540169290360924,10.890190370931645,0.5996023691156233
137.0,20.938291641421124,0.4895461705187263,0.011534879725546902,10.889715874112605,0.5996099914348899
138.0,20.94192089145167,0.48972390084675016,0.011529591654865329,10.889241429851669,0.599617937955336
139.0,20.94554957516713,0.4899016283599145,0.011524305079152579,10.88876703823167,0.5996258795732344
140.0,20.94917769195596,0.49007935298421934,0.01151901999940338,10.888292699335446,0.5996340770708805
141.0,20.952805241206555,0.4902570746456522,0.011513736416613277,10.887818413245842,0.5996428514583622
142.0,20.95643222230732,0.4904347932701822,0.011508454331777376,10.88734418004571,0.599651642971912
143.0,20.9600586346466,0.49061250878376567,0.011503173745888851,10.886869999817906,0.5996601393954796
144.0,20.96368447761273,0.49079022111234716,0.011497894659937613,10.886395872645293,0.5996684213031395
145.0,20.96730975059401,0.4909679301818543,0.011492617074909029,10.885921798610738,0.5996764864783669
146.0,20.970934452978707,0.4911456359182018,0.011487340991223406,10.885447777797108,0.5996844313534344
147.0,20.974558584155083,0.49132333824729063,0.011482066409221366,10.884973810287269,0.5996922758236088
148.0,20.97818214351136,0.49150103709500675,0.011476793329871754,10.884499896164089,0.5996997594744957
149.0,20.98180513043573,0.4916787323872267,0.011471521754134016,10.884026035510443,0.5997069258006467
150.0,20.985427544316373,0.4918564240498085,0.011466251682956789,10.883552228409213,0.5997138287259457
151.0,20.98904938454144,0.492034112008602,0.011460983117276563,10.883078474943284,0.5997207066586386
152.0,20.992670650499058,0.4922117961894386,0.011455716058016055,10.88260477519555,0.5997274894527925
153.0,20.996291341577344,0.4923894765181401,0.011450450506082866,10.882131129248904,0.5997343061707188
154.0,20.999911457164377,0.49256715292051906,0.011445186462368051,10.881657537186252,0.5997411316635299
155.0,21.00353099664823,0.492744825322368,0.01143992392774471,10.881183999090501,0.5997477978507467
156.0,21.007149959416953,0.492922493649474,0.011434662870202167,10.880710515044282,0.5997542021534166
157.0,21.010768344858587,0.49310015782760663,0.01142940331729519,10.88023708513046,0.599760548493215
158.0,21.014386152361126,0.49327781778252494,0.011424145275662254,10.879763709431966,0.5997668829500924
159.0,21.018003381312585,0.49345547343997964,0.011418888746122558,10.879290388031727,0.5997732621667292
160.0,21.021620031100937,0.49363312472570353,0.011413633729470601,10.878817121012682,0.5997798619990752
161.0,21.025236101114157,0.4938107715654247,0.011408380226475105,10.878343908457774,0.5997867298429127
162.0,21.02885159074019,0.49398841388485387,0.01140312823393636,10.877870750449972,0.599794067120953
163.0,21.032466499366972,0.49416605160969435,0.011397877748116934,10.877397647072284,0.5998020230039444
164.0,21.036080826382438,0.49434368466563655,0.011392628769796619,10.876924598407717,0.5998101992759516
165.0,21.039694571174486,0.4945213129783604,0.011387381299734215,10.876451604539287,0.5998183362600621
166.0,21.043307733131023,0.4946989364735351,0.01138213533866648,10.875978665550013,0.5998266473052002
167.0,21.046920311639944,0.4948765550768206,0.011376890885980371,10.875505781522916,0.5998349405734217
168.0,21.050532306089128,0.49505416871386276,0.011371647941176923,10.875032952541016,0.5998433304557675
169.0,21.054143715866438,0.4952317773103003,0.011366406504934808,10.87456017868734,0.599851776849622
170.0,21.05775454035975,0.4954093807917594,0.01136116657686272,10.87408746004491,0.599860105713271
171.0,21.061364778956904,0.4955869790838625,0.011355928156221908,10.873614796696748,0.5998683613557229
172.0,21.06497443104576,0.49576457211221436,0.011350691214287039,10.873142188725058,0.5998764824579607
173.0,21.06858349601414,0.4959421598024117,0.011345455771593488,10.872669636212617,0.5998845977640938
174.0,21.0721919732499,0.4961197420800441,0.01134022183779241,10.872197139242454,0.5998928610024963
175.0,21.075799862140858,0.4962973188706934,0.01133498939636265,10.871724697896955,0.599901090616339
176.0,21.079407162074837,0.49647489009992823,0.011329758454255606,10.871252312258745,0.599909238797801
177.0,21.08301387243966,0.4966524556933076,0.011324529023122294,10.870779982410884,0.5999173357389105
178.0,21.086619992623156,0.49683001557638845,0.011319301103496463,10.870307708436437,0.5999251748361426
179.0,21.09022552201313,0.4970075696747107,0.011314074695884939,10.869835490418474,0.5999329670544183
180.0,21.093830459997402,0.4971851179138123,0.011308849800767485,10.86936332844007,0.599940685201468
181.0,21.097434805963793,0.4973626602192178,0.011303626418596467,10.868891222584308,0.5999485903387032
182.0,21.101038559300118,0.49754019651644615,0.011298404549796873,10.868419172934276,0.5999565713581442
183.0,21.1046417193942,0.4977177267310074,0.01129318419476599,10.867947179573067,0.5999645796703135
184.0,21.108244285633862,0.49789525078840463,0.01128796535346843,10.86747524258377,0.5999727062282029
185.0,21.111846257406924,0.49807276861413374,0.01128274802616778,10.867003362049482,0.59998053502218
186.0,21.115447634101223,0.4982502801336812,0.011277532213191263,10.866531538053302,0.5999881238990677
187.0,21.119048415104587,0.4984277852725277,0.011272317843919515,10.866059770676486,0.5999953485569741
188.0,21.12264859980487,0.4986052839561442,0.011267104929634276,10.865588060000817,0.6000021177486539
189.0,21.126248187589898,0.4987827761099976,0.011261893518232315,10.865116406109404,0.6000086616698395
190.0,21.12984717784753,0.49896026165954455,0.0112566836089373,10.864644809085357,0.6000166413241569
191.0,21.13344556996563,0.4991377405302419,0.01125147519731662,10.864173269011802,0.6000242504460029
192.0,21.13704336333206,0.49931521264752826,0.011246268283875075,10.863701785971868,0.6000316174127305
193.0,21.1406405573347,0.49949267793684776,0.011241062869115026,10.863230360048687,0.6000387932428588
