k,PSNR,SSIM,mse,Log-Gradient,Angle
0.0,20.31270595003022,0.3821249325074663,0.0,10.925179522765726,0.5954167292918733
1.0,20.315860364007513,0.38227716483195834,0.010174145758600114,10.924748152298552,0.6008174103494381
2.0,20.31958790182547,0.3824596623399825,0.01221123520013916,10.924241307918853,0.600845571490312
3.0,20.32334228143393,0.3826438331842675,0.012338354948113608,10.923730947224632,0.6008457711476304
4.0,20.327098189744078,0.38282817473014324,0.012347433373107538,10.923220352609167,0.6008586743883708
5.0,20.330853424898528,0.38301254246419886,0.012343327521769297,10.92270981584517,0.6008765682624263
6.0,20.33460762947325,0.3831969108630611,0.01233651891113687,10.922199386693633,0.6008898088955584
7.0,20.338360731685107,0.38338127419756013,0.01232901651540622,10.92168907653166,0.6008981406241404
8.0,20.34211270930971,0.3835656306011992,0.012321244678843537,10.921178889271657,0.6009113927148902
9.0,20.345863555151276,0.3837499793968176,0.012313369355722885,10.920668826573367,0.6009245290826594
10.0,20.349613266378203,0.3839343202744134,0.012305448884235138,10.920158889238126,0.6009362427104706
11.0,20.35336184119059,0.3841186529771538,0.01229749969229611,10.919649077788517,0.6009482386640892
12.0,20.357109278741138,0.3843029773649007,0.012289537758744515,10.919139392573513,0.600960287574185
13.0,20.36085557845439,0.38448729332855974,0.012281564182200121,10.918629833883026,0.600972076781289
14.0,20.36460073977055,0.38467160075591816,0.01227358218422297,10.918120401941408,0.6009836241385343
15.0,20.368344762151857,0.38485589952695204,0.012265595444750803,10.917611096937712,0.6009945265045523
16.0,20.37208764514179,0.38504018953389757,0.012257606789258121,10.91710191902943,0.6010082615443498
17.0,20.375829388281026,0.3852244706704255,0.012249616633569384,10.91659286835767,0.6010205827310867
18.0,20.37956999119073,0.3854087428382,0.012241625738329097,10.916083945039022,0.601032396779071
19.0,20.383309453468115,0.3855930059402009,0.01223363614952966,10.915575149176545,0.6010443984234436
20.0,20.387047774736313,0.38577725988061795,0.012225649027730967,10.915066480873133,0.601056388416339
21.0,20.390784954592036,0.38596150455828554,0.012217663697700238,10.914557940235078,0.6010683438664958
22.0,20.39452099264926,0.3861457398742582,0.012209679743095697,10.914049527365993,0.6010802937898826
23.0,20.398255888548974,0.38632996573200135,0.012201699951653676,10.91354124235289,0.6010922136235287
24.0,20.401989641933437,0.3865141820351197,0.01219372357373232,10.913033085283216,0.6011041567731361
25.0,20.405722252446044,0.3866983886873239,0.012185751203188298,10.912525056246617,0.6011160339312633
26.0,20.409453719731246,0.38688258559241495,0.012177782459906524,10.912017155319205,0.6011279040470396
27.0,20.41318404343441,0.38706677265427647,0.01216981642511344,10.911509382578986,0.6011397643212094
28.0,20.4169132232018,0.3872509497768664,0.012161854271847855,10.911001738113523,0.6011515878858446
29.0,20.420641258680526,0.38743511686420956,0.012153896447763319,10.910494222007843,0.6011633452984942
30.0,20.424368149518525,0.3876192738203996,0.012145942957670987,10.90998683434665,0.6011756466396888
31.0,20.42809389536451,0.38780342054958966,0.012137993804555587,10.90947957521437,0.6011880282607889
32.0,20.43181849586796,0.3879875569559917,0.012130048897005922,10.908972444693934,0.6012002831603113
33.0,20.43554195067911,0.38817168294385856,0.012122108147898597,10.908465442867028,0.6012123908540604
34.0,20.43926425944892,0.3883557984175208,0.01211417078741523,10.907958569815587,0.6012243838548744
35.0,20.442985421829043,0.38853990328132665,0.012106236916963331,10.907451825623252,0.6012363146682473
36.0,20.446705437471877,0.38872399743972125,0.012098306627597671,10.906945210369974,0.6012482016698081
37.0,20.450424306030502,0.3889080807971596,0.012090379961692576,10.906438724140422,0.6012600403756808
38.0,20.454142027158685,0.38909215325816077,0.012082457371988249,10.905932367017973,0.6012718181325123
39.0,20.45785860051092,0.3892762147272994,0.01207453905276588,10.905426139085527,0.601283522134188
40.0,20.461574025742372,0.38946026510918674,0.01206662500396339,10.904920040425868,0.6012951479789619
41.0,20.465288302508892,0.38964430430849034,0.012058715225280748,10.904414071121673,0.6013067140057159
42.0,20.469001430467028,0.3898283322299272,0.012050809716217113,10.903908231255514,0.6013182299914518
43.0,20.472713409274014,0.39001234877825447,0.01204290847610237,10.903402520909866,0.6013298390108818
44.0,20.476424238587754,0.39019635385828394,0.012035011504123515,10.902896940167107,0.6013414684612718
45.0,20.48013391806686,0.39038034737487964,0.012027118799346327,10.902391489109526,0.6013530803455323
46.0,20.48384244737059,0.39056432923293816,0.012019230360733905,10.901886167819315,0.6013646072168668
47.0,20.487549826158915,0.390748299337427,0.01201134618716204,10.901380976378583,0.6013761086946242
48.0,20.491256054092464,0.39093225759334116,0.012003466277432082,10.900875914869347,0.6013876633873994
49.0,20.494961130832564,0.3911162039057312,0.011995590630281912,10.900370983373548,0.6013991369969904
50.0,20.498665056041204,0.3913001381797066,0.011987719244395317,10.899866181973032,0.6014104810278633
51.0,20.50236782938107,0.39148406032041033,0.011979852118410015,10.899361510749566,0.60142174339341
52.0,20.5060694505155,0.39166797023304484,0.011971989250924152,10.89885696978484,0.6014330542580646
53.0,20.509769919108543,0.3918518678228488,0.011964130640502396,10.898352559160454,0.6014442765846253
54.0,20.51346923482491,0.392035752995132,0.011956276285681022,10.897848278957934,0.6014554069070291
55.0,20.517167397329995,0.3922196256552319,0.011948426184972024,10.897344129258721,0.6014668707760278
56.0,20.520864406289867,0.3924034857085467,0.011940580336867077,10.89684011014418,0.6014785688434334
57.0,20.524560261371278,0.39258733306052257,0.011932738739840746,10.896336221695591,0.6014902352521492
58.0,20.528254962241665,0.3927711676166526,0.011924901392353535,10.895832463994163,0.6015018475467991
59.0,20.531948508569137,0.3929549892824899,0.011917068292854147,10.895328837121017,0.6015133176535896
60.0,20.53564090002249,0.3931387979636259,0.011909239439781928,10.894825341157201,0.6015247490474243
61.0,20.53933213627119,0.3933225935657057,0.011901414831568695,10.894321976183683,0.6015362254686306
62.0,20.543022216985406,0.39350637599443655,0.011893594466640598,10.893818742281352,0.6015481275061946
63.0,20.546711141835956,0.3936901451555592,0.011885778343419485,10.89331563953102,0.601560004961498
64.0,20.550398910494376,0.3938739009548746,0.011877966460324485,10.892812668013416,0.6015718299605443
65.0,20.554085522632857,0.39405764329823817,0.011870158815772991,10.892309827809196,0.6015837938941183
66.0,20.557770977924278,0.3942413720915569,0.011862355408181851,10.891807118998933,0.6015956254154787
67.0,20.561455276042217,0.3944250872407764,0.011854556235968467,10.891304541663128,0.601607314247846
68.0,20.565138416660908,0.3946087886519152,0.011846761297551366,10.890802095882195,0.6016190690438221
69.0,20.56882039945529,0.39479247623102603,0.011838970591351212,10.890299781736477,0.6016309692154136
70.0,20.57250122410098,0.3949761498842279,0.011831184018525138,10.88979759930635,0.6016427953192317
71.0,20.576180890274273,0.3951598095176798,0.011823401648896965,10.889295548672024,0.601654474640568
72.0,20.579859397652164,0.3953434550376061,0.011815623511311766,10.888793629913593,0.6016660366377429
73.0,20.583536745912312,0.3955270863502762,0.011807849604260309,10.888291843111071,0.6016775966284139
74.0,20.587212934733067,0.39571070336201597,0.011800079926233668,10.887790188344393,0.6016890970294548
75.0,20.590887963793477,0.39589430597920555,0.011792314475723162,10.88728866569342,0.6017004238931775
76.0,20.59456183277327,0.39607789410827476,0.011784553251220855,10.886787275237927,0.6017115522536616
77.0,20.598234541352852,0.39626146765571324,0.011776796251219942,10.88628601705761,0.60172256475824
78.0,20.601906089213333,0.3964450265280597,0.011769043474214777,10.885784891232094,0.6017335882208746
79.0,20.6055764760365,0.3966285706319133,0.011761294918701393,10.885283897840914,0.6017446694849661
80.0,20.609245701504825,0.3968120998739293,0.011753550583177653,10.884783036963533,0.6017558253273136
81.0,20.612913765301478,0.39699561416080154,0.011745810466143376,10.88428230867933,0.601767039560284
82.0,20.616580667110306,0.3971791133993042,0.011738074566100562,10.883781713067608,0.6017782590780902
83.0,20.620246406615856,0.3973625974962433,0.011730342881553661,10.883281250207585,0.6017897126999902
84.0,20.62391098350336,0.3975460663584974,0.01172261541100951,10.882780920178403,0.601801379690727
85.0,20.627574397458744,0.39772951989299604,0.011714892152977613,10.882280723059123,0.6018133680278969
86.0,20.63123664816861,0.3979129580067145,0.01170717310597022,10.881780658928722,0.6018253884650792
87.0,20.63489773532028,0.3980963806067,0.011699458268502348,10.881280727866104,0.6018373070025492
88.0,20.638557658601727,0.3982797876000464,0.011691747639091966,10.880780929950081,0.601848771747564
89.0,20.642216417701647,0.3984631788939117,0.01168404121625989,10.880281265259395,0.6018620907959751
90.0,20.64587401230942,0.3986465543955066,0.011676338998529929,10.879781733872703,0.6018738270952865
91.0,20.649530442115122,0.39882991401208984,0.011668640984429027,10.879282335868576,0.6018845876828238
92.0,20.653185706809502,0.3990132576510031,0.011660947172487115,10.87878307132551,0.6018956608903908
93.0,20.656839806084022,0.39919658521961643,0.011653257561237107,10.878283940321918,0.6019079900254624
94.0,20.66049273963084,0.3993798966253695,0.011645572149215102,10.877784942936128,0.60192091556099
95.0,20.664144507142783,0.3995631917757749,0.011637890934960196,10.877286079246389,0.6019339265334774
96.0,20.6677951083134,0.39974647057837265,0.011630213917014557,10.876787349330868,0.601946437144674
97.0,20.671444542836923,0.3999297329407893,0.011622541093923444,10.87628875326765,0.6019584488861619
98.0,20.675092810408273,0.4001129787706956,0.011614872464234982,10.875790291134736,0.6019700364467067
99.0,20.67873991072308,0.4002962079758315,0.011607208026500374,10.875291963010044,0.601981026783761
100.0,20.68238584347766,0.4004794204639726,0.011599547777310813,10.874793768971413,0.6019917099932611
101.0,20.68603060836903,0.400662616142993,0.011591891713680287,10.874295709096605,0.6020029413988157
102.0,20.689674205094892,0.40084579492078615,0.011584239834240177,10.873797783463298,0.6020144581879566
103.0,20.69331663335366,0.40102895670533,0.011576592137628357,10.873299992149082,0.6020266852541608
104.0,20.69695789284445,0.4012121014046588,0.011568948622488999,10.87280233523147,0.6020390010080972
105.0,20.700597983267045,0.4013952289268574,0.011561309287472578,10.872304812787885,0.6020513751349953
106.0,20.70423690432195,0.40157833918007785,0.011553674131235456,10.871807424895675,0.6020637050471341
107.0,20.707874655710373,0.4017614320725423,0.01154604315243999,10.871310171632093,0.6020761496012111
108.0,20.711511237134207,0.4019445075125192,0.01153841634975419,10.87081305307432,0.602089104628725
109.0,20.71514664829605,0.4021275654083307,0.01153079372185163,10.870316069299442,0.6021020440266066
110.0,20.718780888899193,0.4023106056683878,0.011523175267411204,10.869819220384468,0.6021146993429319
111.0,20.722413958647632,0.40249362820113754,0.011515560985116953,10.869322506406318,0.6021269690862096
112.0,20.726045857246067,0.40267663291510597,0.011507950864066967,10.868825927441925,0.6021390847017465
113.0,20.729676584399893,0.4028596197188688,0.011500344878311438,10.868329483568374,0.6021511606266212
114.0,20.733306139815213,0.40304258852107094,0.011492743061610536,10.867833174862321,0.6021631725596278
115.0,20.736934523198816,0.40322553923041804,0.011485145412692169,10.867337001400339,0.6021750340778464
116.0,20.7405617342582,0.4034084717556719,0.011477551930287603,10.866840963258912,0.6021865122497397
117.0,20.74418777270158,0.40359138600567035,0.011469962613130874,10.866345060514442,0.6021987730619573
118.0,20.747812638237853,0.4037742818892984,0.011462377459958392,10.865849293243244,0.6022120120340805
119.0,20.751436330576624,0.4039571593155211,0.011454796469508957,10.865353661521548,0.6022244943238341
120.0,20.755058849428206,0.4041400181933575,0.011447219640523547,10.864858165425495,0.6022365236123416
121.0,20.75868019450361,0.4043228584318839,0.011439646971744752,10.864362805031146,0.6022486511409264
122.0,20.76230036551456,0.40450567994024916,0.01143207846191714,10.86386758041447,0.6022604613129531
123.0,20.76591936217346,0.40468848262766804,0.011424514109786435,10.863372491651349,0.6022709737214527
124.0,20.769537184193446,0.40487126640341237,0.011416953913584011,10.862877538817514,0.6022843003119597
125.0,20.773153831288347,0.405054031176823,0.011409397845559067,10.862382721985067,0.6022959314475709
126.0,20.776769303172692,0.40523677685730847,0.011401845929600063,10.861888041229642,0.6023067125618551
127.0,20.780383599561716,0.40541950335432925,0.011394298164484265,10.861393496626786,0.6023174787373206
128.0,20.783996720171352,0.40560221057742063,0.011386754518017872,10.86089908825191,0.6023282703029808
129.0,20.787608664718253,0.4057848984361896,0.011379215019895732,10.860404816180395,0.6023390836228336
130.0,20.791219432919775,0.4059675668402971,0.011371679669587752,10.859910680487529,0.6023500228838983
131.0,20.79482902449397,0.40615021569946536,0.011364148465880517,10.859416681248515,0.6023613285583719
132.0,20.798437439159613,0.4063328449235002,0.01135662140755997,10.858922818538469,0.6023729203456869
133.0,20.80204467663616,0.4065154544222629,0.011349098493411267,10.85842909243242,0.6023843789084132
134.0,20.80565073664382,0.4066980441056726,0.011341579722218584,10.857935503005313,0.6023956079264693
135.0,20.80925561890346,0.40688061388373425,0.01133406509276482,10.857442050332,0.6024065986009126
136.0,20.812859323136685,0.4070631636665076,0.011326554603831272,10.856948734487252,0.6024169747569054
137.0,20.816461849065803,0.4072456933641137,0.011319048249851771,10.856455555545535,0.602426581805966
138.0,20.82006319641383,0.407428202886762,0.011311546001662773,10.855962513579927,0.6024360186879355
139.0,20.823663364904483,0.40761069214469875,0.011304047889201276,10.855469608664936,0.6024455068658098
140.0,20.8272623542622,0.40779316104826213,0.011296553910141853,10.854976840874995,0.6024549271212444
141.0,20.83086016421207,0.40797560950783973,0.011289064026843234,10.854484210283985,0.6024649736256138
142.0,20.834456794479912,0.40815803743387374,0.011281578243988932,10.853991716965854,0.6024761713946198
143.0,20.838052244792276,0.4083404447369021,0.01127409657671033,10.853499360994883,0.6024870330912178
144.0,20.841646514876405,0.40852283132751066,0.011266619024171951,10.85300714244526,0.602497273304092
145.0,20.845239604460314,0.4087051971163682,0.011259145585560374,10.852515061391081,0.6025070252849382
146.0,20.848831513272685,0.4088875420142095,0.011251676248321296,10.852023117906008,0.6025172209982717
147.0,20.85242224104296,0.4090698659318445,0.011244210993719467,10.851531312063113,0.6025273103981826
148.0,20.856011787501288,0.40925216878015136,0.011236749818283194,10.851039643935366,0.6025372889554395
149.0,20.859600152378555,0.40943445047007626,0.011229292744902033,10.850548113596307,0.6025471783614305
150.0,20.86318733540636,0.40961671091263807,0.011221839779420014,10.850056721119577,0.6025575112303702
151.0,20.866773336317014,0.40979895001893746,0.01121439091980107,10.849565466578712,0.6025680327637896
152.0,20.870358154843576,0.4099811677001264,0.011206946165489682,10.849074350047154,0.6025788153379465
153.0,20.87394179071981,0.41016336386745716,0.011199505515950127,10.848583371598258,0.6025894435381127
154.0,20.877524243680202,0.41034553843223165,0.011192068970665731,10.848092531305282,0.6025995490249484
155.0,20.88110551345999,0.41052769130581224,0.011184636528843127,10.847601829241396,0.6026095338817442
156.0,20.88468559979509,0.4107098223996772,0.011177208187850111,10.847111265479677,0.6026204365489997
157.0,20.888264502422174,0.4108919316253405,0.0111697839472512,10.846620840093113,0.602631441271002
158.0,20.891842221078637,0.4110740188943993,0.011162363806629313,10.846130553154595,0.602642301870254
159.0,20.895418755502565,0.41125608411852466,0.011154947765584901,10.845640404736923,0.6026530492114303
160.0,20.898994105432813,0.4114381272094611,0.011147535823735257,10.845150394912798,0.6026635753830385
161.0,20.90256827060891,0.4116201480790214,0.011140127980713564,10.844660523754838,0.6026738830849928
162.0,20.906141250771157,0.41180214663910447,0.011132724236168194,10.844170791335555,0.6026840535769259
163.0,20.909713045660542,0.4119841228016621,0.011125324586320281,10.8436811977274,0.6026938563749892
164.0,20.913283655018784,0.41216607647873543,0.011117929027059742,10.843191743002714,0.6027032391350492
165.0,20.916853078588332,0.4123480075824386,0.011110537525003489,10.842702427233249,0.6027126258017846
166.0,20.92042131611235,0.41252991602494776,0.011103150114575713,10.842213250491191,0.6027221094712072
167.0,20.923988367334726,0.41271180171852145,0.011095766795709555,10.841724212848634,0.6027315210820401
168.0,20.927554232000073,0.41289366457549326,0.011088387566614474,10.841235314377563,0.6027408655046208
169.0,20.931118909853723,0.41307550450827213,0.011081012427263474,10.840746555149869,0.6027502796037357
170.0,20.93468240064172,0.4132573214293292,0.011073641377661175,10.840257935237343,0.6027598101935935
171.0,20.93824470411085,0.4134391152512276,0.01106627441782361,10.839769454711684,0.6027692227485221
172.0,20.941805820008597,0.4136208858865869,0.011058911547776882,10.83928111364449,0.602778437267322
173.0,20.945365748083184,0.41380263324811506,0.011051552767555992,10.838792912107268,0.6027876719480111
174.0,20.948924488083538,0.4139843572485864,0.011044198077203532,10.838304850171419,0.6027968200314519
175.0,20.952482039759314,0.4141660578008555,0.011036847476768582,10.837816927908253,0.60280588861965
176.0,20.95603840286089,0.41434773481784704,0.01102950096583248,10.837329145388985,0.6028148016526272
177.0,20.95959357713936,0.4145293882125598,0.011022158543951539,10.83684150268473,0.6028239274793243
178.0,20.963147562346535,0.41471101789807435,0.011014820210893665,10.836353999866503,0.6028329906591537
179.0,20.966700358234938,0.4148926237875455,0.011007485925238251,10.835866637004944,0.6028420573190884
180.0,20.970251964557832,0.41507420579419096,0.011000155727571669,10.83537941417084,0.6028514690618598
181.0,20.97380238106918,0.41525576383132184,0.010992829618030607,10.83489233143488,0.602860978018069
182.0,20.977351607523666,0.4154372978123155,0.010985507596745799,10.834405388867655,0.6028704807910183
183.0,20.980899643676693,0.4156188076506158,0.010978189663840218,10.833918586539657,0.6028800606832173
184.0,20.984446489284384,0.415800293259762,0.01097087581862755,10.833431924521257,0.6028893115927082
185.0,20.987992144103575,0.41598175455335046,0.010963566061134248,10.832945402882734,0.6028988832283517
186.0,20.991536607891824,0.4161631914450686,0.01095626039148287,10.832459021694257,0.6029088843999183
187.0,20.9950798804074,0.41634460384867183,0.010948958808547226,10.831972781025906,0.6029169221310794
188.0,20.998621961409288,0.41652599167798665,0.010941661311717872,10.831486680947654,0.6029246344185774
189.0,21.0021628506572,0.4167073548469286,0.010934367901082702,10.831000721529378,0.6029354575510034
190.0,21.005702547911532,0.416888693269481,0.010927078576715077,10.830514902840855,0.602944884528156
191.0,21.00924105293344,0.4170700068596995,0.01091979333542234,10.830029224951796,0.6029532868873299
192.0,21.012778365484767,0.41725129553172113,0.010912512175861689,10.829543687931823,0.6029604395478032
193.0,21.01631448532807,0.4174325591997745,0.010905235098134756,10.829058291850458,0.6029694495340051
