k,PSNR,SSIM,mse,Log-Gradient,Angle
0.0,20.31270595003022,0.3821249325074663,0.0,10.925179522765726,0.5954167292918733
1.0,20.315861019314887,0.38227719646067887,0.01017625909832242,10.924748062679729,0.6008174126262119
2.0,20.31958998695066,0.3824597635384759,0.012215856302976858,10.924241023346664,0.600845581082195
3.0,20.323346576643075,0.38264404227085363,0.012345527680517204,10.923730361589548,0.6008457875481191
4.0,20.327105475756593,0.3828285300855941,0.012357165275928767,10.923219359715613,0.6008586911739567
5.0,20.330864482434777,0.38301308250192073,0.012355618227223825,10.922708309471806,0.600876588488946
6.0,20.334623239180843,0.38319767402380434,0.012351366399294135,10.922197260603804,0.6008898647970609
7.0,20.338381674123717,0.3833822989481273,0.01234641827068393,10.921686224475854,0.6008982152160395
8.0,20.342139764945916,0.38356695543403,0.0123411980417063,10.921175204988455,0.600911470203077
9.0,20.34589750435641,0.38375164282973545,0.012335871590369155,10.920664203789919,0.6009246286040202
10.0,20.349654889427118,0.38393636085050975,0.012330497225656182,10.920153221670413,0.6009363715566326
11.0,20.353411918260594,0.3841211092646227,0.012325091365039117,10.919642259141582,0.6009483854644116
12.0,20.357168589911208,0.3843058879569819,0.012319669977256614,10.919131316541622,0.6009604658375081
13.0,20.360924903704337,0.3844906968433975,0.01231423416141904,10.918620394149832,0.6009722861736445
14.0,20.36468085898029,0.38467553583646685,0.012308787135324488,10.918109492180104,0.6009838707866716
15.0,20.36843645510064,0.3848604048408773,0.012303332579852498,10.917598610811144,0.6009948208134182
16.0,20.372191691507417,0.38504530377348684,0.01229787331442524,10.917087750190245,0.6010085615298643
17.0,20.375946567639105,0.38523023255246747,0.012292409756382218,10.916576910448434,0.6010209478046491
18.0,20.379701083013913,0.3854151911038959,0.012286942668601399,10.916066091692333,0.6010328003869039
19.0,20.38345523712539,0.3856001793550661,0.012281474093643822,10.915555294015139,0.6010448523242186
20.0,20.387209029492233,0.3857851972343818,0.012276005191945496,10.915044517510008,0.6010568895568673
21.0,20.39096245960604,0.3859702446648035,0.012270535295325045,10.914533762273566,0.6010688960390634
22.0,20.394715526974878,0.38615532157138244,0.012265063981328784,10.914023028399944,0.6010809003538945
23.0,20.398468231133084,0.386340427881511,0.012259594038043848,10.913512315966747,0.6010928835489456
24.0,20.40222057161556,0.38652556352261175,0.012254124719832586,10.913001625052111,0.6011048870981316
25.0,20.40597254795761,0.3867107284221101,0.01224865661761107,10.912490955736503,0.601116828094248
26.0,20.40972415969484,0.3868959225074288,0.01224318935630049,10.911980308086967,0.6011287750569986
27.0,20.413475406363062,0.3870811457059707,0.012237722021739788,10.911469682172509,0.6011407060131218
28.0,20.417226287498245,0.38726639794511114,0.012232255779517804,10.910959078071834,0.601152603895572
29.0,20.420976802636467,0.38745167915220646,0.01222679108097185,10.910448495861214,0.6011644361747311
30.0,20.4247269513139,0.3876369892545717,0.012221327932211432,10.909937935616705,0.6011767805661993
31.0,20.428476733066752,0.3878223281794724,0.012215866337521792,10.909427397414195,0.6011892384884115
32.0,20.432226147431294,0.38800769585414346,0.012210406207165887,10.908916881328182,0.6012015702120023
33.0,20.43597519394378,0.3881930922057717,0.012204947455927437,10.908406387432033,0.6012137564954608
34.0,20.439723872140473,0.388378517161498,0.012199489323300458,10.907895915799468,0.6012258367941118
35.0,20.443472181557606,0.38856397064841275,0.01219403190241212,10.907385466506033,0.601237853478722
36.0,20.44722012173142,0.38874945259355137,0.012188575291911662,10.906875039623673,0.6012498356050279
37.0,20.450967692198077,0.38893496292392044,0.012183119528316067,10.906364635229167,0.6012617545625552
38.0,20.454714892493747,0.38912050156645756,0.012177665067207154,10.905854253398124,0.6012736227548564
39.0,20.458461722154535,0.38930606844804405,0.01217221210415006,10.905343894205771,0.6012854085361762
40.0,20.46220818071653,0.3894916634955153,0.012166760640387547,10.904833557727336,0.6012971258238647
41.0,20.465954267715748,0.38967728663567275,0.01216131067692404,10.90432324403805,0.601308776108542
42.0,20.46969998268818,0.38986293779524067,0.012155862214562814,10.903812953213146,0.6013204100906248
43.0,20.473445325169763,0.39004861690090215,0.012150415253937435,10.90330268532787,0.6013321427439845
44.0,20.477190294696385,0.3902343238792871,0.012144969795537978,10.902792440457478,0.6013438701828528
45.0,20.48093489080388,0.3904200586569689,0.012139525839732924,10.902282218677254,0.60135558504556
46.0,20.484679113028044,0.39060582116046944,0.01213408338678728,10.901772020062488,0.6013672165412058
47.0,20.488422960904593,0.39079161131625795,0.012128642436878261,10.9012618446885,0.6013788448031326
48.0,20.492166433969228,0.3909774290507493,0.012123202990107919,10.900751692630632,0.6013905057868826
49.0,20.495909531757558,0.3911632742903189,0.012117765046514245,10.90024156396425,0.6014020666084678
50.0,20.499652253805177,0.391349146961262,0.012112328606080469,10.899731458764746,0.601413496018735
51.0,20.50339459964759,0.39153504698984726,0.012106893668742838,10.899221377107539,0.6014249121188573
52.0,20.507136568820272,0.39172097430227454,0.012101460234397583,10.898711319068079,0.6014363292167489
53.0,20.51087816085864,0.39190692882469946,0.012096028302906611,10.898201284721841,0.6014476479334244
54.0,20.514619375298043,0.39209291048322265,0.012090597874102656,10.897691274144334,0.6014589017342112
55.0,20.5183602116738,0.3922789192038891,0.012085168947793462,10.897181287411094,0.6014706748997894
56.0,20.522100669521166,0.392464954912697,0.012079741523765739,10.896671324597689,0.6014825166039451
57.0,20.525840748375334,0.39265101753558684,0.012074315601788312,10.89616138577972,0.6014943230377623
58.0,20.529580447771476,0.39283710699844593,0.012068891181615124,10.895651471032817,0.6015060174101771
59.0,20.53331976724467,0.3930232232271223,0.012063468262987632,10.895141580432647,0.6015176462758187
60.0,20.537058706329972,0.3932093661473946,0.012058046845637105,10.894631714054901,0.6015290902343228
61.0,20.540797264562368,0.3933955356850028,0.012052626929286582,10.89412187197531,0.6015410225509145
62.0,20.54453544147681,0.39358173176562744,0.012047208513652609,10.893612054269635,0.6015530494888428
63.0,20.548273236608196,0.3937679543148966,0.012041791598446676,10.893102261013672,0.6015650576766253
64.0,20.552010649491358,0.39395420325839753,0.012036376183376671,10.892592492283246,0.601577156355808
65.0,20.555747679661096,0.3941404785216565,0.012030962268148161,10.892082748154216,0.601589188737297
66.0,20.55948432665216,0.3943267800301415,0.012025549852465204,10.89157302870248,0.601601119625169
67.0,20.563220589999233,0.39451310770929116,0.012020138936031701,10.891063334003961,0.6016129769660704
68.0,20.56695646923698,0.39469946148448004,0.012014729518551965,10.890553664134622,0.6016249893859492
69.0,20.57069196389999,0.3948858412810279,0.012009321599731535,10.890044019170457,0.6016370545350499
70.0,20.574427073522813,0.3950722470242,0.012003915111163888,10.889534399187571,0.6016489886704048
71.0,20.578161797639957,0.3952586786392398,0.01199851006765551,10.889024804262093,0.6016607638169349
72.0,20.58189613578588,0.3954451360513052,0.011993106526483138,10.8885152344701,0.6016724982882159
73.0,20.585630087494998,0.3956316191855234,0.011987704487419024,10.888005689887713,0.6016842146419594
74.0,20.589363652301667,0.3958181279669704,0.011982303950234814,10.887496170591083,0.6016958245655604
75.0,20.59309682974021,0.39600466232066084,0.011976904914701695,10.886986676656392,0.6017072110116625
76.0,20.596829619344916,0.39619122217157104,0.011971507380590694,10.886477208159858,0.601718442652231
77.0,20.600562020650006,0.39637780744462225,0.011966111347673067,10.885967765177734,0.6017296264482509
78.0,20.60429403318967,0.39656441806469633,0.01196071681572049,10.885458347786303,0.601740879408421
79.0,20.608025656498068,0.3967510539566066,0.011955323784505376,10.884948956061882,0.6017522068229433
80.0,20.611756890109287,0.39693771504513453,0.011949932253801058,10.884439590080822,0.6017636102440499
81.0,20.6154877335574,0.39712440125499393,0.011944542223382044,10.883930249919509,0.601775027428681
82.0,20.619218186376433,0.397311112510876,0.011939153693024143,10.883420935654355,0.6017865635664362
83.0,20.622948248100354,0.3974978487374097,0.011933766662504624,10.882911647361816,0.601798396872465
84.0,20.62667791826311,0.39768460985915927,0.011928381131602439,10.88240238511837,0.601810551003683
85.0,20.630407196398597,0.3978713958006585,0.011922997100098243,10.881893149000536,0.601822799098867
86.0,20.634136082040683,0.39805820648639584,0.01191761456777441,10.881383939084861,0.6018349832457791
87.0,20.63786457472319,0.398245041840805,0.011912233534415426,10.880874755447929,0.6018468233723709
88.0,20.6415926739799,0.39843190178826626,0.01190685399980765,10.88036559816635,0.6018598087404504
89.0,20.64532037934456,0.3986187862531143,0.011901475963739465,10.879856467316774,0.6018723490885086
90.0,20.64904769035088,0.39880569515964986,0.011896099426001349,10.879347362975878,0.6018833215766002
91.0,20.65277460653254,0.3989926284321081,0.01189072438638587,10.878838285220374,0.6018944898965172
92.0,20.656501127423166,0.3991795859946859,0.011885350844687795,10.878329234127005,0.6019069699494747
93.0,20.660227252556368,0.39936656777152785,0.011879978800703971,10.877820209772548,0.6019200995409936
94.0,20.663952981465705,0.39955357368673566,0.011874608254233367,10.87731121223381,0.6019333964710739
95.0,20.667678313684718,0.3997406036643593,0.011869239205077115,10.876802241587631,0.6019461817132387
96.0,20.6714032487469,0.3999276576284046,0.011863871653038415,10.876293297910884,0.6019584499374879
97.0,20.67512778618572,0.400114735502837,0.011858505597922562,10.875784381280472,0.6019702740549308
98.0,20.678851925534612,0.4003018372115584,0.011853141039536894,10.875275491773328,0.6019814796845706
99.0,20.68257566632697,0.4004889626784464,0.0118477779768988,10.874766629466423,0.6019924055155363
100.0,20.686299008096164,0.4006761118273166,0.011842416407034583,10.87425779443676,0.6020039252157048
101.0,20.69002195037553,0.40086328458193377,0.011837056329827915,10.873748986761377,0.6020157377282073
102.0,20.693744492698386,0.40105048086603584,0.011831697745168103,10.873240206517343,0.6020283031113741
103.0,20.697466634598,0.4012377006033021,0.011826340652950055,10.872731453781753,0.6020409153922911
104.0,20.701188375607614,0.40142494371736753,0.01182098505307413,10.87222272863174,0.6020535871797541
105.0,20.704909715260452,0.40161221013181897,0.011815630945445974,10.871714031144464,0.6020662072299786
106.0,20.708630653089713,0.4017994997702017,0.0118102783299763,10.871205361397116,0.6020790593509678
107.0,20.712351188628535,0.4019868125560227,0.011804927206580742,10.870696719466922,0.6020923686049428
108.0,20.71607132141008,0.40217414841272814,0.011799577575179689,10.870188105431131,0.602105573482901
109.0,20.719791050967437,0.40236150726373116,0.011794229435698127,10.869679519367033,0.6021184170822835
110.0,20.72351037683369,0.4025488890323951,0.011788882788065341,10.869170961351937,0.6021309074900627
111.0,20.727229298541904,0.40273629364204355,0.011783537632214769,10.868662431463191,0.6021433131680077
112.0,20.7309478156251,0.40292372101594554,0.011778193955797411,10.868153929778293,0.6021556736757968
113.0,20.734665927616284,0.40311117107733746,0.01177285174026961,10.867645456374955,0.6021679341663351
114.0,20.738383634048446,0.40329864374940533,0.01176751101716159,10.867137011330602,0.6021799390308685
115.0,20.742100934454545,0.4034861389552866,0.011762171786446346,10.86662859472269,0.60219153751076
116.0,20.745817828367514,0.40367365661808496,0.011756834048099112,10.866120206628702,0.6022052963653013
117.0,20.749534315320265,0.4038611966608588,0.011751497802096845,10.865611847126157,0.6022184516649541
118.0,20.753250394845693,0.40404875900661175,0.011746163048417784,10.865103516292598,0.6022309078282623
119.0,20.75696606647667,0.404236343578326,0.011740829787041556,10.864595214205599,0.6022433248111935
120.0,20.76068132974605,0.4044239502989071,0.011735498017948633,10.864086940942766,0.6022556157520543
121.0,20.76439618418665,0.4046115790912514,0.011730167741120316,10.863578696581733,0.6022672313317889
122.0,20.7681106293313,0.4047992298781928,0.011724838956538385,10.863070481200161,0.6022795929991603
123.0,20.771824664712778,0.40498690258253006,0.011719511664184955,10.862562294875746,0.6022922315612789
124.0,20.77553828986387,0.4051745971270189,0.0117141858467477,10.862054137683613,0.6023034645423193
125.0,20.779251504317315,0.4053623134343629,0.011708861512281598,10.86154600970038,0.6023144856880245
126.0,20.78296430760585,0.40555005142724115,0.01170353866810548,10.861037911003836,0.6023255917919242
127.0,20.78667669926221,0.4057378110282656,0.011698217307920205,10.860529841671784,0.6023367168807784
128.0,20.790388678819077,0.40592559216003576,0.011692897413154138,10.860021801782038,0.6023479014428756
129.0,20.794100245809144,0.4061133947450863,0.011687579009307192,10.859513791412478,0.6023594853002378
130.0,20.797811399765088,0.406301218705923,0.01168226209639276,10.859005810641014,0.6023714238457697
131.0,20.801522140219554,0.40648906396499696,0.011676946674422633,10.85849785954558,0.6023832464484163
132.0,20.805232466705196,0.4066769304447395,0.011671632743406832,10.857989938204144,0.6023948357679232
133.0,20.80894237875464,0.40686481806752134,0.011666320303353387,10.857482046694704,0.6024061761261276
134.0,20.812651875900514,0.40705272675568027,0.011661009354267851,10.856974185095284,0.6024168917498917
135.0,20.81636095767541,0.4072406564315029,0.011655699896153332,10.856466353483938,0.6024268030010622
136.0,20.820069623611943,0.40742860701726125,0.011650391929009987,10.855958551938752,0.6024365711228675
137.0,20.823777873242687,0.40761657843515037,0.011645085418877436,10.855450780536113,0.6024463441044003
138.0,20.827485706100205,0.4078045706073592,0.011639780396431708,10.854943039354147,0.6024560652044985
139.0,20.83119312171703,0.4079925834559972,0.01163447684819767,10.854435328471148,0.6024667006064773
140.0,20.834900119625665,0.40818061690315116,0.011629174755067537,10.853927647964918,0.6024782113682147
141.0,20.838606699358646,0.40836867087086853,0.011623874118359709,10.853419997913324,0.6024892902244184
142.0,20.84231286044849,0.4085567452811454,0.01161857495589673,10.852912378394754,0.6024996908888413
143.0,20.846018602427744,0.4087448400559636,0.011613277268085347,10.85240478948761,0.6025098824626135
144.0,20.849723924828947,0.4089329551172493,0.011607981055354417,10.851897231270327,0.6025203512660333
145.0,20.853428827184636,0.4091210903869,0.011602686304885656,10.851389703820958,0.6025307509218603
146.0,20.857133309027365,0.4093092457867739,0.011597393003443004,10.850882207217184,0.6025409731156491
147.0,20.860837369889698,0.40949742123868876,0.011592101143470604,10.850374741536541,0.6025515484297355
148.0,20.864541009304194,0.4096856166644378,0.011586810754921717,10.849867306857465,0.6025622312831963
149.0,20.868244226803426,0.40987383198576205,0.011581521840077389,10.8493599032585,0.6025733091576317
150.0,20.87194702191998,0.4100620671243805,0.0115762343996065,10.848852530818222,0.6025843057112433
151.0,20.875649394186446,0.4102503220019658,0.011570948434198645,10.848345189615229,0.6025951602330716
152.0,20.879351343135415,0.4104385965401644,0.011565663944563376,10.84783787972814,0.6026052934037057
153.0,20.8830528682995,0.4106268906605726,0.01156038093074512,10.847330601235605,0.6026161635477675
154.0,20.88675396921131,0.4108152042847541,0.011555099391659834,10.846823354216303,0.6026275571291474
155.0,20.890454645403473,0.41100353733426487,0.011549819328101864,10.846316138748934,0.6026388728657468
156.0,20.894154896408622,0.41119188973057,0.011544540740884679,10.84580895491222,0.6026500376105711
157.0,20.897854721759405,0.4113802613951516,0.011539263630840525,10.845301802784913,0.6026609888128976
158.0,20.90155412098847,0.411568652249436,0.011533987998819417,10.844794682445782,0.602671701818935
159.0,20.90525309362848,0.41175706221480884,0.011528713845688475,10.844287593973624,0.6026822634179664
160.0,20.908951639212123,0.41194549121262347,0.011523441169497873,10.843780537447277,0.6026924755242825
161.0,20.912649757272067,0.41213393916419855,0.011518169969343104,10.843273512945617,0.6027022252924277
162.0,20.916347447341018,0.41232240599083064,0.011512900245392454,10.84276652054755,0.6027119013120585
163.0,20.92004470895168,0.41251089161376236,0.011507631975891254,10.842259560331634,0.60272174392719
164.0,20.923741541636765,0.41269939595421,0.011502365171447771,10.841752632376616,0.602731518123626
165.0,20.92743794492901,0.4128879189333592,0.011497099845272116,10.841245736761476,0.6027412155197365
166.0,20.93113391836116,0.41307646047234386,0.011491835997420392,10.840738873565204,0.6027510508299808
167.0,20.934829461465956,0.41326502049229186,0.011486573629142549,10.840232042866816,0.6027609325904906
168.0,20.938524573776167,0.4134535989142741,0.011481312741702795,10.839725244745349,0.6027706706061153
169.0,20.942219254824572,0.4136421956593345,0.01147605333637812,10.839218479279856,0.6027803235160868
170.0,20.945913504143945,0.41383081064848387,0.011470795414457115,10.838711746549416,0.602789887892697
171.0,20.9496073212671,0.4140194438026931,0.011465538977238707,10.838205046633128,0.602799420682023
172.0,20.953300705726832,0.4142080950429046,0.011460284025999195,10.83769837961011,0.6028088051027701
173.0,20.956993657055982,0.4143967642900319,0.011455030560923842,10.837191745559505,0.6028182001828778
174.0,20.960686174787362,0.4145854514649337,0.011449778583456735,10.836685144560471,0.6028277733279431
175.0,20.96437825845383,0.41477415648846455,0.0114445280950469,10.836178576692197,0.6028372629216189
176.0,20.968069907588237,0.4149628792814175,0.011439279097146605,10.83567204203388,0.6028468523410211
177.0,20.971761121723457,0.4151516197645743,0.011434031557030397,10.835165540664505,0.602856912384187
178.0,20.975451900392375,0.41534037785867034,0.011428785502704817,10.834659072663241,0.6028668931884005
179.0,20.979142243127875,0.4155291534844113,0.011423540941713599,10.834152638109309,0.6028770555977013
180.0,20.982832149462865,0.41571794656246325,0.011418297875468577,10.833646237081956,0.6028870418479172
181.0,20.98652161893027,0.41590675701347085,0.011413056305374245,10.83313986966044,0.6028974009135161
182.0,20.990210651063013,0.41609558475803626,0.011407816232826539,10.832633535924048,0.6029076782129456
183.0,20.99389924539404,0.41628442971673496,0.011402577658525544,10.832127235952061,0.6029169856187991
184.0,20.9975874014563,0.41647329181010084,0.011397340582498609,10.83162096982378,0.6029240263938905
185.0,21.001275118782768,0.4166621709586416,0.011392105005364396,10.831114737618522,0.602934004878725
186.0,21.004962396906418,0.41685106708283515,0.01138687092850773,10.830608539415625,0.6029428068321977
187.0,21.00864923536024,0.4170399801031161,0.011381638351677437,10.83010237529446,0.6029512162353389
188.0,21.012335633677246,0.41722890993989276,0.011376407272994693,10.829596245334448,0.6029589806780292
189.0,21.016021591390448,0.41741785651354596,0.011371177693881036,10.829090149615029,0.6029688006623325
190.0,21.01970710803287,0.4176068197444125,0.011365949615746041,10.828584088215658,0.6029783221681659
191.0,21.023392183137567,0.4177957995528025,0.011360723037684445,10.828078061215791,0.6029876373806958
192.0,21.027076816237585,0.4179847958589935,0.011355497958605836,10.827572068694872,0.6029969793068443
193.0,21.030761006865998,0.41817380858323366,0.01135027437999911,10.827066110732368,0.6030063480662929
