k,PSNR,SSIM,mse,Log-Gradient,Angle
0.0,20.31270595003022,0.3821249325074663,0.0,10.925179522765726,0.5954167292918733
1.0,20.31586153556112,0.3822772213775525,0.010177923971382197,10.924747992078691,0.6008174144198368
2.0,20.319591629788416,0.3824598432711608,0.012219497389307084,10.924240799136586,0.6008455886293037
3.0,20.323349961178895,0.38264420702664115,0.012351180272243797,10.92372990012101,0.6008458004640997
4.0,20.327111217682855,0.3828288101322433,0.012364836059561993,10.923218577240263,0.6008587043946115
5.0,20.33087319767375,0.38301350814422097,0.012365307660598727,10.922707122189777,0.6008766044051713
6.0,20.33463554382681,0.3831982755993957,0.012363073638385206,10.922195584671899,0.6008899088484868
7.0,20.338398184431185,0.38338310682657806,0.012360142080230554,10.92168397600944,0.6008982739966627
8.0,20.34216109732577,0.383568000016491,0.012356937072104097,10.921172300062164,0.6009115312534402
9.0,20.345924275374347,0.3837529545487854,0.01235362443095628,10.920660558437977,0.6009247070381266
10.0,20.349687715802883,0.3839379701700966,0.012350262441755215,10.920148751886812,0.60093647329072
11.0,20.353451416867316,0.38412304667997477,0.012346867512722993,10.919636880880208,0.6009485012084996
12.0,20.35721537777492,0.38430818399453254,0.012343455603619893,10.919124945716344,0.6009606064448992
13.0,20.360979598003528,0.38449338206076833,0.012340027812910357,10.918612946634585,0.600972451305287
14.0,20.364744077045486,0.3846786408224141,0.01233658735439859,10.91810088380897,0.600984065318876
15.0,20.368508814413985,0.3848639602152279,0.012333137908674215,10.91758875737839,0.60099505287214
16.0,20.372273809702204,0.38504934018707787,0.012329682289364752,10.917076567450403,0.6010087979663661
17.0,20.37603906249934,0.38523478068710965,0.012326220913967038,10.916564314116352,0.601021235760849
18.0,20.379804572473944,0.3854202816723183,0.012322754546083363,10.916051997443212,0.6010331190088329
19.0,20.383570339269458,0.3856058431008851,0.012319285224542884,10.915539617484585,0.6010452105368271
20.0,20.387336362554084,0.38579146493202576,0.012315814108650293,10.91502717429408,0.6010572851377024
21.0,20.391102641968523,0.3859771471194659,0.012312340534738007,10.914514667928788,0.6010693332101631
22.0,20.39486917716946,0.3861628896189953,0.01230886407450657,10.914002098443412,0.6010813793175346
23.0,20.398635967839493,0.38634869238867364,0.012305387515289975,10.913489465876147,0.6010934124770929
24.0,20.402403013661345,0.3865345553865372,0.012301910113565339,10.912976770265743,0.6011054641330366
25.0,20.40617031431774,0.386720478570598,0.012298432456902368,10.912464011653352,0.6011174549417261
26.0,20.409937869491294,0.38690646189878947,0.012294954173147105,10.911951190066745,0.6011294626999231
27.0,20.413705678864392,0.38709250532899814,0.012291474350732884,10.91143830553566,0.6011414512715422
28.0,20.41747374211917,0.3872786088190165,0.012287994148355633,10.910925358099611,0.6011534063163331
29.0,20.421242058937466,0.38746477232657,0.012284514019216607,10.910412347795717,0.6011652982038355
30.0,20.425010629000777,0.38765099580928813,0.012281033969412027,10.909899274660923,0.6011776764203908
31.0,20.428779451990234,0.3878372792247163,0.012277554003215549,10.909386138732044,0.6011901950224191
32.0,20.432548527586583,0.38802362253030437,0.012274074031171468,10.908872940044557,0.6012025861493124
33.0,20.436317855470172,0.38821002568339563,0.012270593968527569,10.908359678632848,0.601214834837202
34.0,20.440087435320898,0.38839648864125215,0.012267113061056078,10.907846354531697,0.6012269865381148
35.0,20.44385726681824,0.38858301136103374,0.012263631394350086,10.907332967777766,0.6012390701481809
36.0,20.44762734964123,0.3887695937997841,0.012260149071993003,10.906819518404134,0.6012511271160657
37.0,20.451397683468425,0.3889562359144512,0.012256666124862639,10.906306006448785,0.6012631138443946
38.0,20.455168267977943,0.3891429376618898,0.012253183009742988,10.905792431948562,0.6012750535095633
39.0,20.458939102847424,0.3893296989988464,0.012249699922173764,10.905278794939983,0.6012869033627666
40.0,20.462710187754052,0.3895165198819526,0.012246216863388745,10.9047650954596,0.6012986914084015
41.0,20.466481522374544,0.3897034002677448,0.012242733834383105,10.904251333544021,0.6013104092530777
42.0,20.470253106385133,0.38989034011265183,0.012239250835950536,10.903737509229897,0.6013221352043744
43.0,20.47402493946157,0.39007733937300326,0.012235767868714479,10.90322362255394,0.6013339640949831
44.0,20.477797021279148,0.39026439800500196,0.012232284933154468,10.902709673552918,0.6013457789073032
45.0,20.48156935151266,0.3904515159647724,0.012228802029627889,10.902195662263665,0.6013575660215816
46.0,20.485341929836423,0.3906386932083141,0.012225319158388209,10.90168158872308,0.6013692836149857
47.0,20.489114755924277,0.39082592969152,0.012221836319600436,10.901167452968126,0.6013810110523711
48.0,20.49288782944956,0.39101322537018096,0.012218353513353852,10.900653255035838,0.6013927499096802
49.0,20.49666115008514,0.39120058019998205,0.012214870739673022,10.900138994963326,0.6014043838056052
50.0,20.500434717503396,0.3913879941365041,0.012211387998527137,10.899624672787763,0.6014158788001867
51.0,20.504208531376207,0.39157546713520547,0.012207905289837848,10.899110288546405,0.6014274184900026
52.0,20.50798259137497,0.3917629991514561,0.012204422613485992,10.89859584227658,0.6014389168689713
53.0,20.511756897170592,0.3919505901405029,0.012200939969317457,10.898081334015687,0.6014503165521706
54.0,20.515531448433496,0.39213824005749237,0.012197457357148282,10.897566763801212,0.6014617624469243
55.0,20.519306244833594,0.3923259488574624,0.01219397477676885,10.897052131670707,0.6014736977356466
56.0,20.523081286040323,0.392513716495346,0.012190492227947727,10.896537437661813,0.6014856412980508
57.0,20.526856571722632,0.39270154292596976,0.012187009710434982,10.89602268181224,0.601497553119674
58.0,20.53063210154896,0.3928894281040329,0.012183527223965039,10.895507864159788,0.6015093337510552
59.0,20.53440787518726,0.39307737198415477,0.012180044768259133,10.894992984742325,0.6015210606068514
60.0,20.538183892304986,0.393265374520823,0.012176562343027554,10.89447804359781,0.6015326039567536
61.0,20.541960152569125,0.39345343566843455,0.012173079947971623,10.893963040764275,0.6015448116909959
62.0,20.545736655646124,0.39364155538126955,0.012169597582785525,10.893447976279838,0.6015569798378523
63.0,20.54951340120197,0.39382973361350193,0.012166115247157515,10.892932850182694,0.601569040799866
64.0,20.553290388902138,0.39401797031919156,0.01216263294077166,10.892417662511125,0.6015813423453524
65.0,20.557067618411615,0.3942062654522984,0.012159150663308756,10.89190241330349,0.6015934577077103
66.0,20.560845089394885,0.3943946189666721,0.012155668414447592,10.89138710259823,0.6016054660858473
67.0,20.56462280151594,0.39458303081605006,0.012152186193865771,10.890871730433876,0.6016174940612559
68.0,20.568400754438283,0.39477150095406427,0.012148704001240702,10.89035629684903,0.6016297047650948
69.0,20.572178947824895,0.3949600293342402,0.012145221836250282,10.889840801882384,0.6016418628424437
70.0,20.575957381338284,0.39514861590998773,0.012141739653315936,10.889325245572769,0.6016538726791064
71.0,20.579736054640442,0.395337260634617,0.0121382574230796,10.888809627959127,0.601665757286408
72.0,20.58351496739288,0.3955259634613195,0.012134775224067596,10.888293949080389,0.6016776426115943
73.0,20.58729411925659,0.39571472434318306,0.01213129305602118,10.887778208975568,0.6016894720702394
74.0,20.591073509892084,0.3959035432331956,0.012127810918680126,10.887262407683762,0.6017011165434424
75.0,20.59485313895936,0.3960924200842175,0.012124328811782903,10.886746545244149,0.6017125585858355
76.0,20.59863300611792,0.3962813548490169,0.012120846735067133,10.886230621695995,0.6017238957094503
77.0,20.602413111026785,0.3964703474802512,0.01211736468826967,10.885714637078648,0.6017352592883058
78.0,20.60619345334444,0.3966593979304576,0.012113882671127044,10.88519859143154,0.601746704016622
79.0,20.609974032728896,0.39684850615207085,0.012110400683375626,10.884682484794185,0.6017582287132721
80.0,20.613754848837665,0.39703767209742263,0.012106918724751866,10.884166317206187,0.6017697971277417
81.0,20.61753590132774,0.39722689571873443,0.012103436794992444,10.88365008870723,0.6017813510207682
82.0,20.62131718985562,0.39741617696811343,0.012099954893834646,10.883133799337083,0.6017933035455351
83.0,20.625098714077325,0.3976055157975491,0.012096473021016138,10.882617449135601,0.6018054694777084
84.0,20.628880473648334,0.39779491215893853,0.012092991176275523,10.882101038142723,0.6018178854310265
85.0,20.632662468223653,0.3979843660040692,0.012089509359352126,10.881584566398475,0.6018303036320459
86.0,20.63644469745777,0.39817387728461345,0.012086027569986267,10.881068033942961,0.6018425177664374
87.0,20.64022716100468,0.39836344595212614,0.01208254580791921,10.880551440816376,0.6018545436019384
88.0,20.644009858517876,0.3985530719580728,0.012079064072893365,10.880034787059001,0.60186858194497
89.0,20.64779278965034,0.3987427552537906,0.012075582364652218,10.879518072711196,0.6018797292466687
90.0,20.651575954054543,0.39893249579053247,0.012072100682940392,10.879001297813412,0.6018908704117464
91.0,20.655359351382494,0.39912229351939854,0.012068619027503715,10.878484462406181,0.6019031699147801
92.0,20.65914298128563,0.39931214839143553,0.012065137398089181,10.877967566530122,0.6019163616787454
93.0,20.662926843414947,0.39950206035753744,0.012061655794444995,10.87745061022594,0.6019298755238616
94.0,20.666710937420916,0.3996920293685075,0.012058174216320522,10.876933593534426,0.6019430272942359
95.0,20.670495262953477,0.3998820553750351,0.012054692663466291,10.876416516496455,0.6019555924628559
96.0,20.674279819662104,0.40007213832769833,0.012051211135633962,10.875899379152985,0.6019677309076076
97.0,20.678064607195743,0.400262278176986,0.012047729632576276,10.875382181545065,0.6019792492981383
98.0,20.681849625202844,0.40045247487323726,0.012044248154046991,10.874864923713828,0.6019903615278391
99.0,20.685634873331335,0.4006427283667266,0.012040766697129557,10.874347605700493,0.6020019484064327
100.0,20.689420351228677,0.4008330386075884,0.01203728526067252,10.873830227546373,0.6020139225619617
101.0,20.69320605854177,0.4010234055458633,0.012033803844505166,10.87331278929286,0.6020266249207146
102.0,20.696991994917052,0.4012138291314738,0.012030322448461432,10.872795290981442,0.6020394490560846
103.0,20.70077816000044,0.4014043093142286,0.012026841072379914,10.872277732653682,0.6020523485247827
104.0,20.704564553437336,0.40159484604384676,0.012023359716103637,10.871760114351238,0.6020651974762532
105.0,20.70835117487264,0.40178543926992716,0.012019878379479884,10.871242436115846,0.602078251784951
106.0,20.712138023950754,0.40197608894194997,0.012016397062360107,10.870724697989333,0.6020918088120677
107.0,20.715925100315566,0.4021667950092913,0.012012915764599561,10.870206900013613,0.6021052692037078
108.0,20.719712403610448,0.4023575574212361,0.01200943448605737,10.869689042230682,0.602118358872565
109.0,20.723499933478273,0.4025483761269311,0.01200595322659607,10.86917112468263,0.6021310872263274
110.0,20.7272876895614,0.4027392510754271,0.012002471986081472,10.868653147411623,0.6021437302824676
111.0,20.7310756715017,0.4029301822156754,0.011998990764382638,10.86813511045992,0.6021563196680836
112.0,20.734863878940494,0.40312116949649485,0.011995509546932029,10.867617013870017,0.6021688035140811
113.0,20.73865231151863,0.4033122128666145,0.011992028320017991,10.867098857684622,0.6021809846726109
114.0,20.742440968876434,0.4035033122746468,0.01198854711234695,10.866580641946245,0.602193165242554
115.0,20.74622985065373,0.40369446766909656,0.011985065923822901,10.866062366697479,0.6022071650464759
116.0,20.750018956489818,0.4038856789983452,0.011981584754350788,10.865544031981004,0.6022204185095613
117.0,20.753808286023506,0.4040769462106973,0.011978103603836108,10.86502563783959,0.6022330294124482
118.0,20.757597838893076,0.4042682692543169,0.011974622472184646,10.864507184316091,0.6022457437781231
119.0,20.76138761473631,0.4044596480772628,0.0119711413593023,10.863988671453448,0.6022582166475927
120.0,20.765177613190474,0.40465108262749405,0.011967660265094647,10.86347009929469,0.6022696169100057
121.0,20.76896783389232,0.40484257285286357,0.011964179189466883,10.862951467882931,0.6022831153944359
122.0,20.7727582764781,0.4050341187010981,0.011960698132323476,10.862432777261375,0.6022954237043486
123.0,20.77654894058355,0.40522572011983443,0.011957217088598622,10.861914027472483,0.6023067457593883
124.0,20.780339825843885,0.4054173770565784,0.011953736044335216,10.861395218556689,0.6023180497672623
125.0,20.784130931893813,0.4056090894587479,0.011950255016346464,10.860876350557463,0.6023293951864079
126.0,20.78792225836754,0.40580085727363285,0.011946774004556621,10.860357423518364,0.6023407585406373
127.0,20.791713804898745,0.4059926804484251,0.01194329299700294,10.85983843748302,0.6023523747193598
128.0,20.795505571120586,0.4061845589302024,0.011939811986537933,10.859319392495145,0.6023643872779637
129.0,20.799297556665735,0.4063764926659379,0.011936330992628036,10.858800288598564,0.6023765787528146
130.0,20.80308976116634,0.40656848160248416,0.011932850015197973,10.858281125837191,0.602388571068282
131.0,20.806882184254036,0.4067605256865891,0.011929369054169496,10.857761904255034,0.6024003134655943
132.0,20.81067482555993,0.40695262486490064,0.011925888109461337,10.857242623896182,0.6024116714960553
133.0,20.81446768471465,0.4071447790839484,0.011922407180988682,10.85672328480482,0.6024221863180353
134.0,20.818260761348274,0.40733698829014475,0.01191892626866312,10.856203887025215,0.6024321474673943
135.0,20.822054055090394,0.4075292524298142,0.011915445372392084,10.855684430601727,0.6024422394099623
136.0,20.825847565570072,0.4077215714491545,0.011911964470779787,10.855164915577657,0.6024521348730932
137.0,20.829641292415836,0.4079139452942387,0.011908483562324166,10.85464534199699,0.6024623054959924
138.0,20.833435235255678,0.4081063739110488,0.011905002652548412,10.854125709904483,0.6024742036604241
139.0,20.837229393717095,0.40829885724543713,0.011901521732674707,10.853606019344724,0.6024857492185216
140.0,20.84102376742709,0.4084913952431732,0.011898040784636377,10.853086270361874,0.6024966037355208
141.0,20.844818356012137,0.4086839878498832,0.011894559835019995,10.852566463000958,0.6025069222979991
142.0,20.848613159098246,0.4088766350111263,0.011891078884148124,10.852046597307082,0.6025177105083921
143.0,20.852408176310888,0.4090693366723292,0.011887597932365315,10.851526673325438,0.6025283728623281
144.0,20.856203407275068,0.40926209277881803,0.011884116974523753,10.851006691101134,0.6025388939750761
145.0,20.859998851615252,0.40945490327581346,0.01188063598297034,10.85048665067848,0.6025497171179647
146.0,20.863794508955426,0.40964776810841547,0.011877154963384907,10.849966552102117,0.6025606999817683
147.0,20.86759037891907,0.4098406872216425,0.011873673932316326,10.849446395417303,0.6025719741591244
148.0,20.87138646112914,0.4100336605603825,0.011870192898434561,10.84892618066965,0.6025832704331249
149.0,20.875182755208122,0.41022668806942963,0.011866711862324322,10.848405907904864,0.6025943284348075
150.0,20.878979260777967,0.41041976969346144,0.011863230824590952,10.847885577168732,0.6026047469464063
151.0,20.882775977460135,0.41061290537705813,0.011859749785859778,10.847365188507132,0.6026158829606293
152.0,20.886572904875564,0.4108060950646754,0.011856268744438373,10.846844741966034,0.6026275963502002
153.0,20.89037004264471,0.4109993387006799,0.011852787700771403,10.846324237591492,0.6026392066471807
154.0,20.89416739038751,0.4111926362293236,0.01184930665557039,10.845803675429652,0.6026506667421685
155.0,20.89796494772338,0.4113859875947436,0.011845825609566374,10.845283055526739,0.6026618859994683
156.0,20.901762714271243,0.41157939274098115,0.011842344563508921,10.844762377929074,0.6026728650220606
157.0,20.905560689649526,0.4117728516119663,0.011838863517339865,10.844241642683066,0.6026836754290567
158.0,20.909358873476116,0.41196636415151183,0.011835382469655773,10.843720849835222,0.6026940787071122
159.0,20.913157265368408,0.4121599303033394,0.011831901420141035,10.843199999432153,0.6027040014927749
160.0,20.916955864943283,0.4123535500110365,0.011828420368187745,10.842679091520562,0.60271400770395
161.0,20.920754671817114,0.41254722321812326,0.011824939314822737,10.842158126147245,0.6027241264458618
162.0,20.924553685605755,0.4127409498679637,0.011821458230978733,10.841637103358574,0.6027341492223394
163.0,20.928352905924555,0.4129347299038595,0.011817977142074306,10.84111602320142,0.6027441243922063
164.0,20.932152332388352,0.4131285632689685,0.01181449605258852,10.840594885722838,0.6027543380767039
165.0,20.935951964611455,0.4133224499063604,0.011811014963490404,10.840073690969959,0.6027644570249884
166.0,20.939751802207688,0.4135163897589835,0.011807533875962856,10.839552438990005,0.6027744519259753
167.0,20.94355184479032,0.4137103827696973,0.011804052791203013,10.839031129830282,0.6027843892964055
168.0,20.947352091972146,0.4139044288812324,0.011800571710421,10.838509763538184,0.6027941954372434
169.0,20.951152543365406,0.4140985280362153,0.011797090634838763,10.837988340161191,0.6028039696044459
170.0,20.954953198581848,0.414292680177174,0.011793609564806448,10.83746685974687,0.6028135799058214
171.0,20.958754057232696,0.41448688524651395,0.011790128501258455,10.836945322342874,0.6028235040919823
172.0,20.96255511892865,0.41468114318654825,0.011786647445572817,10.836423727996943,0.6028333055210834
173.0,20.966356383279894,0.4148754539394675,0.011783166399133752,10.8359020767569,0.6028430905552881
174.0,20.970157849896097,0.4150698174473568,0.011779685363330128,10.83538036867066,0.6028534071309187
175.0,20.97395951838639,0.41526423365219306,0.011776204330043302,10.834858603786152,0.6028637833214961
176.0,20.97776138835941,0.415458702495849,0.011772723280282187,10.834336782151233,0.6028742197673466
177.0,20.981563459423246,0.41565322392008125,0.01176924224388942,10.833814903814035,0.6028846616969039
178.0,20.98536573118547,0.4158477978665323,0.011765761222218996,10.833292968822775,0.602896094294514
179.0,20.989168203253147,0.41604242427675425,0.011762280216618265,10.832770977225756,0.6029059953109845
180.0,20.992970875232793,0.41623710309216944,0.011758799228426415,10.832248929071365,0.6029163889898893
181.0,20.996773746730412,0.41643183425410585,0.011755318258973075,10.831726824408078,0.6029238379100104
182.0,21.00057681735148,0.41662661770377957,0.01175183730749098,10.831204663284444,0.602934144566473
183.0,21.004380086700944,0.4168214533822829,0.011748356374571799,10.83068244574909,0.6029434564736994
184.0,21.008183554383237,0.417016341230608,0.01174487546119614,10.830160171850734,0.6029522416495933
185.0,21.01198722000223,0.41721128118964795,0.011741394563993854,10.82963784163822,0.6029591719520336
186.0,21.0157910831613,0.41740627320016715,0.01173791368434891,10.82911545516048,0.6029682813536819
187.0,21.01959514346328,0.4176013172028455,0.011734432823635097,10.828593012466534,0.6029774416273029
188.0,21.023399400510474,0.41779641313821864,0.011730951981402213,10.82807051360547,0.6029874223660322
189.0,21.027203853904645,0.41799156094673884,0.011727471155831365,10.827547958626427,0.6029973870179034
190.0,21.031008503247048,0.4181867605687424,0.011723990348382918,10.827025347578635,0.6030073744408849
191.0,21.03481334813838,0.41838201194444063,0.01172050956050854,10.826502680511409,0.6030171101576373
192.0,21.03861838817882,0.4185773150139602,0.011717028793649897,10.825979957474152,0.603026729996691
193.0,21.042423622968002,0.4187726697173037,0.011713548049237127,10.825457178516354,0.6030362343558352
