k,PSNR,SSIM,mse,Log-Gradient,Angle
0.0,20.31270595003022,0.3821249325074663,0.0,10.925179522765726,0.5954167292918733
1.0,20.31586076444078,0.38227718415905687,0.010175437139669811,10.924748097535916,0.6008174117406894
2.0,20.31958917593334,0.38245972417694407,0.012214058875304532,10.924241134032103,0.6008455773533773
3.0,20.323344905936537,0.3826439609425077,0.01234273759857056,10.923730589383934,0.6008457811689994
4.0,20.327102641599947,0.38282839185734113,0.012353379480971855,10.923219745937358,0.6008586846455963
5.0,20.33086018102813,0.38301287242606613,0.012350836736237521,10.922708895454614,0.6008765806249231
6.0,20.334617166713937,0.383197377140106,0.0123455898719257,10.922198087692598,0.6008898430526073
7.0,20.338373526781808,0.38338190028428926,0.012339647559518172,10.921687334025842,0.6008981862012975
8.0,20.34212923891177,0.38356644000587775,0.01233343405550605,10.921176638364754,0.600911440063935
9.0,20.345884295811103,0.3837509956412825,0.01232711526775533,10.920666002367385,0.6009245898909337
10.0,20.349638694550517,0.3839355668940154,0.012320749516809872,10.920155426833539,0.6009363213522945
11.0,20.353392433231733,0.38412015352066,0.0123143532244065,10.919644912284419,0.6009483283519488
12.0,20.357145510908584,0.38430475539442127,0.012307942363414993,10.919134459067717,0.6009603964814033
13.0,20.360897926906212,0.3844893724194951,0.012301518032959577,10.918624067472177,0.6009722047035878
14.0,20.364649680564952,0.3846740044968781,0.012295083452505644,10.918113737721077,0.6009837748114553
15.0,20.368400771246694,0.3848586515197016,0.012288642302770872,10.917603470002472,0.6009947063085791
16.0,20.37215119839407,0.38504331339327874,0.012282197405734958,10.917093264472951,0.6010084448386298
17.0,20.37590096144642,0.3852279900243006,0.012275749178353132,10.916583121272808,0.6010208057536658
18.0,20.379650059923108,0.38541268132737283,0.012269298382839388,10.916073040517873,0.6010326432829591
19.0,20.38339849331907,0.3855973872183758,0.012262847063293105,10.915563022310538,0.6010446756859794
20.0,20.387146261154705,0.38578210761431947,0.012256396380402861,10.915053066753096,0.6010566945272562
21.0,20.390893362923528,0.38596684242680107,0.012249945663450388,10.914543173951294,0.6010686808437165
22.0,20.394639798135827,0.38615159156955164,0.012243494492562944,10.91403334400832,0.6010806642806555
23.0,20.39838556632844,0.38633635495867447,0.012237045655894787,10.913523577010807,0.6010926227639016
24.0,20.402130667039003,0.38652113251034664,0.012230598406456076,10.913013873045893,0.6011046025494914
25.0,20.405875099805854,0.3867059241407634,0.012224153336510005,10.912504232202998,0.6011165190236252
26.0,20.409618864167875,0.38689072976616296,0.012217710069224678,10.911994654558084,0.6011284360699101
27.0,20.41336195966444,0.3870755493028071,0.012211267688849867,10.91148514018905,0.601140339494823
28.0,20.417104385835326,0.38726038266694807,0.012204827364074342,10.91097568918345,0.601152208419245
29.0,20.420846142220714,0.3874452297748577,0.012198389545007312,10.910466301626368,0.6011640113902433
30.0,20.424587228361126,0.3876300905427988,0.012191954237457557,10.909956977602636,0.6011763390662547
31.0,20.428327643797417,0.38781496488704076,0.012185521445408585,10.90944771719688,0.6011887673466286
32.0,20.432067388070724,0.387999852723836,0.012179091078676676,10.908938520492303,0.6012010692619572
33.0,20.43580646072249,0.3881847539694144,0.012172663051508104,10.908429387570937,0.6012132248657891
34.0,20.439544861294397,0.3883696685400225,0.012166236599982757,10.907920318515133,0.6012252711899553
35.0,20.443282589328398,0.388554596351873,0.012159811820647971,10.907411313409025,0.6012372544062957
36.0,20.447019644366684,0.38873953732116845,0.012153388809405192,10.90690237233312,0.6012491994785788
37.0,20.450756025951673,0.38892449136410123,0.01214696760525146,10.906393495372717,0.6012610873592964
38.0,20.45449173362604,0.3891094583968399,0.012140548662867203,10.905884682611902,0.6012729198951946
39.0,20.458226766932682,0.3892944383355523,0.012134132177521968,10.905375934134351,0.6012846736046967
40.0,20.461961125414714,0.3894794310963677,0.012127718150154834,10.9048672500237,0.6012963545112585
41.0,20.465694808615496,0.3896644365954091,0.012121306581466566,10.90435863036355,0.6013079733650636
42.0,20.4694278160786,0.38984945474879207,0.012114897471956822,10.903850075237466,0.6013195614275745
43.0,20.47316014734782,0.39003448547259606,0.01210849082195581,10.903341584728993,0.6013312457508371
44.0,20.47689180196718,0.39021952868290644,0.012102086631650293,10.902833158921649,0.6013429344557302
45.0,20.480622779480925,0.3904045842957607,0.012095684901105606,10.902324797898931,0.6013546090281938
46.0,20.4843530794335,0.39058965222720027,0.012089285630283931,10.901816501744323,0.6013661981193879
47.0,20.48808270136959,0.39077473239326066,0.012082888819059695,10.901308270541286,0.6013777773561116
48.0,20.491811644834087,0.3909598247099236,0.012076494467232322,10.900800104373275,0.6013893992979232
49.0,20.49553990937211,0.3911449290931846,0.012070102574537663,10.900292003323727,0.6014009257428975
50.0,20.49926749452898,0.39133004545901207,0.012063713140656714,10.899783967476068,0.6014123218388584
51.0,20.50299439985026,0.3915151737233529,0.012057326165223946,10.899275996913715,0.6014236768465544
52.0,20.50672062488171,0.3917003138021502,0.01205094164783393,10.898768091720077,0.6014350537082582
53.0,20.510446169169313,0.3918854656113106,0.012044559588047168,10.898260251978549,0.6014463338361196
54.0,20.51417103225928,0.392070629066745,0.012038179985395218,10.897752477772526,0.6014575405194047
55.0,20.517895213698036,0.39225580408433064,0.012031802839384974,10.897244769185388,0.6014691921749042
56.0,20.52161871303222,0.3924409905799353,0.012025428149502481,10.896737126300511,0.6014809790068706
57.0,20.52534152980869,0.3926261884694169,0.01201905591521611,10.896229549201266,0.6014927315043266
58.0,20.529063663574533,0.3928113976686096,0.012012686135979717,10.895722037971018,0.6015043871519052
59.0,20.53278511387706,0.39299661809332936,0.012006318811234833,10.89521459269312,0.6015159612201592
60.0,20.536505880263785,0.39318184965939224,0.011999953940413087,10.894707213450928,0.6015274030857299
61.0,20.540225962282456,0.3933670922825681,0.011993591522938146,10.894199900327784,0.6015391525722205
62.0,20.54394535948104,0.39355234587864407,0.01198723155822747,10.893692653407033,0.601551124222207
63.0,20.547664071407734,0.3937376103633847,0.011980874045693623,10.893185472772007,0.6015630883851627
64.0,20.551382097610947,0.3939228856525166,0.011974518984745981,10.892678358506037,0.6015750866263191
65.0,20.555099437639313,0.39410817166178447,0.011968166374791745,10.892171310692449,0.6015870842436687
66.0,20.558816091041695,0.3942934683068923,0.01196181621523694,10.891664329414558,0.6015989749389611
67.0,20.562532057367186,0.3944787755035482,0.01195546850548764,10.891157414755686,0.6016107596484274
68.0,20.56624733616509,0.39466409316742923,0.01194912324495061,10.890650566799135,0.6016226766065051
69.0,20.56996192698495,0.39484942121421507,0.01194278043303414,10.890143785628212,0.6016346833331899
70.0,20.573675829376526,0.3950347595595549,0.011936439989714867,10.88963707132631,0.6016465768902551
71.0,20.577389042889813,0.3952201081191024,0.011930101951363127,10.889130423976773,0.601658312424583
72.0,20.581101567075024,0.3954054668084863,0.01192376636441824,10.888623843662879,0.6016699808336757
73.0,20.584813401482602,0.3955908355433147,0.011917433228356337,10.888117330467898,0.6016816351007097
74.0,20.588524545663237,0.39577621423919945,0.011911102542653323,10.887610884475098,0.6016932118184962
75.0,20.592234999167825,0.39596160281174003,0.011904774306784896,10.887104505767741,0.6017045737261064
76.0,20.595944761547496,0.3961470011764963,0.011898448520226904,10.886598194429084,0.6017157606294298
77.0,20.599653832353624,0.3963324092490497,0.011892125182455651,10.886091950542378,0.6017268702015565
78.0,20.603362211137814,0.39651782694494814,0.011885804292948271,10.885585774190865,0.6017380306183809
79.0,20.607069897451886,0.39670325417974084,0.011879485851182866,10.885079665457786,0.601749269093909
80.0,20.610776890847905,0.3968886908689479,0.011873169856638742,10.884573624426375,0.6017605791778172
81.0,20.614483190878175,0.39707413692809207,0.011866856308796758,10.884067651179857,0.6017719157212543
82.0,20.618188797095222,0.3972595922726776,0.011860545207139346,10.883561745801453,0.6017832491396883
83.0,20.62189370905181,0.3974450568182015,0.011854236551150666,10.883055908374379,0.6017949935716158
84.0,20.62559792630095,0.3976305304801482,0.01184793034031694,10.882550138981843,0.601806950744849
85.0,20.629301448395868,0.39781601317398857,0.011841626574126315,10.882044437707044,0.6018191161039083
86.0,20.633004274890048,0.39800150481519175,0.011835325252069134,10.88153880463318,0.6018312542569186
87.0,20.636706405337193,0.39818700531920137,0.01182902637363801,10.881033239843438,0.6018431748796211
88.0,20.640407839291264,0.3983725146014634,0.011822729938327786,10.880527743420998,0.6018550117079136
89.0,20.64410857630644,0.39855803257740946,0.011816435945635688,10.880022315449036,0.6018687071265317
90.0,20.64780861593716,0.3987435591624622,0.011810144395061352,10.879516956010718,0.6018796018813063
91.0,20.651507957738072,0.3989290942720285,0.011803855286106866,10.879011665189205,0.6018904864248437
92.0,20.655206601264105,0.3991146378215114,0.011797568618276763,10.878506443067646,0.6019024245185023
93.0,20.6589045460704,0.39930018972630227,0.011791284391078021,10.878001289729188,0.6019153401174148
94.0,20.662601791712348,0.3994857499017935,0.011785002604020123,10.877496205256964,0.6019285529324513
95.0,20.66629833774559,0.39967131826334484,0.011778723256614972,10.876991189734108,0.6019414641307781
96.0,20.669994183725994,0.39985689472633495,0.011772446348377,10.876486243243736,0.6019537983947001
97.0,20.67368932920968,0.40004247920611585,0.011766171878822935,10.875981365868965,0.6019657308275225
98.0,20.677383773753032,0.40022807161804064,0.011759899847472024,10.875476557692894,0.6019770778451262
99.0,20.681077516912637,0.40041367187743343,0.011753630253845803,10.87497181879862,0.601987945911525
100.0,20.68477055824537,0.40059927989964844,0.011747363094032152,10.87446714926924,0.6019990924533384
101.0,20.688462897308316,0.40078489559999647,0.01174109836748663,10.873962549187834,0.6020107074736919
102.0,20.692154533658847,0.40097051889379903,0.011734836073810732,10.87345801863748,0.602022869389897
103.0,20.695845466854543,0.4011561496963643,0.011728576212611934,10.872953557701244,0.6020353312953536
104.0,20.69953569645326,0.40134178792299346,0.011722318783503473,10.872449166462184,0.6020478841369813
105.0,20.70322522201308,0.40152743348898773,0.011716063786104153,10.871944845003346,0.6020604164394522
106.0,20.706914043092365,0.40171308630962815,0.011709811220038205,10.87144059340777,0.6020729850772079
107.0,20.710602159249696,0.40189874630020267,0.011703561084935244,10.870936411758487,0.6020860239030313
108.0,20.71428957004393,0.4020844133759803,0.011697313380429857,10.870432300138512,0.6020991752636726
109.0,20.71797627503415,0.4022700874522365,0.01169106810616165,10.869928258630857,0.6021121007941529
110.0,20.72166227377972,0.40245576844422887,0.011684825261774896,10.869424287318518,0.6021246231014912
111.0,20.725347565840234,0.4026414562672174,0.01167858484691833,10.868920386284488,0.6021369384484229
112.0,20.729032150775552,0.4028271508364564,0.011672346850012139,10.868416555611851,0.6021491952930702
113.0,20.73271602814578,0.40301285206718473,0.011666111249825285,10.867912795383898,0.602161406893983
114.0,20.736399197511286,0.40319855987465153,0.011659878078959499,10.86740910568357,0.6021734788425899
115.0,20.740081658432693,0.403384274174086,0.011653647337104858,10.866905486593808,0.6021851684663393
116.0,20.74376341047087,0.4035699948807332,0.011647419023953843,10.866401938197534,0.6021975038520463
117.0,20.74744445318696,0.40375572190979625,0.01164119313920121,10.86589846057766,0.6022109848746181
118.0,20.751124786142356,0.40394145517651464,0.011634969682543376,10.86539505381709,0.6022236912059084
119.0,20.75480440889869,0.4041271945961035,0.011628748653678531,10.864891717998718,0.6022359131530239
120.0,20.758483321017888,0.40431294008377255,0.011622530052306089,10.86438845320542,0.60224824124279
121.0,20.762161522062108,0.4044986915547355,0.011616313878126847,10.863885259520064,0.6022602595611052
122.0,20.76583901159378,0.40468444892419636,0.011610100130842403,10.863382137025509,0.6022709551164703
123.0,20.76951578917559,0.40487021210735996,0.011603888810155078,10.862879085804597,0.6022845067638889
124.0,20.773191854370495,0.40505598101942164,0.011597679904703185,10.862376105938552,0.6022962897334162
125.0,20.776867206741695,0.40524175557557984,0.011591473409408444,10.861873197508093,0.6023072408038296
126.0,20.780541845852657,0.40542753569103246,0.011585269337939382,10.861370360596037,0.6023181972776649
127.0,20.78421577126712,0.4056133212809611,0.011579067686451198,10.860867595285182,0.6023291771405938
128.0,20.787888982549077,0.4057991122605713,0.011572868430453735,10.86036490165828,0.6023401771343074
129.0,20.79156147926279,0.40598490854502806,0.011566671598087799,10.859862279798111,0.6023513703102082
130.0,20.795233260972786,0.4061707100495324,0.011560477189090626,10.859359729787451,0.6023629297769051
131.0,20.798904327243854,0.4063565166892548,0.011554285203198542,10.858857251709054,0.602374731781716
132.0,20.802574677641058,0.4065423283793839,0.011548095640146484,10.858354845645668,0.6023863632663304
133.0,20.806244311729717,0.40672814503510074,0.011541908499667831,10.857852511680024,0.6023977578509302
134.0,20.809913229075434,0.4069139665715764,0.011535723781494147,10.857350249894846,0.6024088646165584
135.0,20.813581429244067,0.40709979290399184,0.011529541485354955,10.85684806037284,0.6024192484296067
136.0,20.817248911801755,0.4072856239475193,0.011523361610977337,10.856345943196704,0.6024289302761178
137.0,20.820915676314886,0.40747145961734405,0.011517184135317816,10.855843898447985,0.6024386091181632
138.0,20.824581722350146,0.4076572998286279,0.011511009067484571,10.855341926208743,0.6024482369450422
139.0,20.828247049474452,0.40784314449655784,0.011504836414567121,10.85484002656168,0.602457905870456
140.0,20.83191165725498,0.40802899353627664,0.011498666159883498,10.854338199589405,0.6024686955952603
141.0,20.835575545259182,0.40821484686296544,0.011492498277340215,10.853836445373831,0.6024800180755712
142.0,20.8392387130548,0.4084007043917794,0.011486332798165128,10.853334763997701,0.6024908681026352
143.0,20.842901160209863,0.4085865660378916,0.011480169722473713,10.852833155543742,0.6025010659124782
144.0,20.84656288629267,0.4087724317164811,0.011474009050403819,10.852331620094661,0.6025111936994682
145.0,20.85022389087184,0.408958301342716,0.011467850782115084,10.851830157733156,0.6025215103824363
146.0,20.853884173516235,0.40914417483177407,0.01146169488017089,10.851328768540784,0.6025317808889933
147.0,20.85754373379505,0.4093300520988457,0.011455541360468263,10.85082745259961,0.6025418648142166
148.0,20.861202571277744,0.4095159330591061,0.011449390223840505,10.850326209991728,0.6025523042376069
149.0,20.86486068553406,0.40970181762775565,0.011443241489304057,10.849825040799763,0.6025628386250378
150.0,20.86851807613405,0.4098877057199821,0.011437095155931425,10.84932394510631,0.602573817222832
151.0,20.872174742648035,0.4100735972509915,0.011430951224120594,10.84882292299395,0.6025846847715647
152.0,20.875830684646633,0.4102594921359705,0.011424809694289743,10.848321974545245,0.6025954218213282
153.0,20.879485901700754,0.4104453902901402,0.011418670566876463,10.84782109984274,0.6026054216513119
154.0,20.883140393381602,0.41063129162870604,0.01141253384122592,10.847320298968965,0.6026161457801379
155.0,20.886794159260674,0.41081719606688843,0.011406399516441287,10.84681957200643,0.602627381835908
156.0,20.89044719890974,0.41100310351990416,0.011400267593043467,10.846318919037632,0.602638555597432
157.0,20.89409951190088,0.4111890139029822,0.011394138071572189,10.845818340145046,0.6026495766934337
158.0,20.897751097806456,0.41137492713134827,0.011388010952585174,10.845317835411128,0.6026603997478481
159.0,20.901401956199134,0.41156084312024754,0.011381886236657384,10.844817404918317,0.6026709826835113
160.0,20.905052086651857,0.4117467617849208,0.011375763924380241,10.844317048749028,0.602681418717598
161.0,20.90870148873787,0.4119326830406121,0.01136964401406226,10.84381676698568,0.6026915426344558
162.0,20.9123501620307,0.41211860680257845,0.01136352650376885,10.843316559710688,0.6027012097293888
163.0,20.915998106104187,0.41230453298608144,0.011357411392726946,10.842816427006433,0.6027107245805133
164.0,20.919645320532446,0.41249046150637697,0.011351298647359695,10.842316368954744,0.6027204413744074
165.0,20.923291804889892,0.4126763922787489,0.011345188303199812,10.841816385637987,0.6027300845402775
166.0,20.926937558751234,0.41286232521846666,0.011339080360352326,10.841316477138506,0.6027396493047662
167.0,20.930582581691482,0.4130482602408257,0.01133297481876454,10.840816643538616,0.6027492821600587
168.0,20.934226873285922,0.4132341972611122,0.011326871679400908,10.84031688492061,0.6027590496134719
169.0,20.93787043311015,0.41342013619461476,0.011320770943238974,10.839817201366756,0.6027686917371302
170.0,20.94151326074005,0.41360607695664947,0.011314672611268303,10.839317592959306,0.6027781725954374
171.0,20.945155355751794,0.4137920194625284,0.01130857668448913,10.838818059780488,0.6027876329235695
172.0,20.948796717721866,0.4139779636275584,0.011302483163911215,10.838318601912503,0.6027970102175448
173.0,20.952437346227022,0.4141639093670819,0.011296392050552502,10.837819219437534,0.6028063075746408
174.0,20.95607724084433,0.41434985659642837,0.011290303344687986,10.837319912437742,0.6028154536420562
175.0,20.959716401151148,0.4145358052309273,0.01128421704706608,10.836820680995265,0.6028249029545785
176.0,20.96335482672512,0.4147217551859373,0.011278133158839822,10.836321525192218,0.6028342313310356
177.0,20.9669925171442,0.41490770637681096,0.011272051675497576,10.835822445110656,0.6028435834699547
178.0,20.97062947198662,0.4150936587189138,0.011265972568058256,10.835323440832395,0.6028533572358257
179.0,20.974265690830933,0.41527961212761877,0.011259895871939117,10.834824512439445,0.6028631782732828
180.0,20.977901173255944,0.4154655665183038,0.01125382158825847,10.83432566001379,0.602873064357727
181.0,20.981535918840798,0.4156515218063495,0.011247749718128287,10.833826883637387,0.6028829578505055
182.0,20.985169927164907,0.41583747790716696,0.0112416802626529,10.833328183392176,0.6028936888172262
183.0,20.988803197808,0.4160234347361483,0.011235613222506874,10.832829559360055,0.6029027365053332
184.0,20.992435730350074,0.4162093922087073,0.011229548598353421,10.832331011622893,0.6029131679800167
185.0,20.99606752437145,0.41639535024027685,0.011223486390358741,10.83183254026253,0.6029204178889972
186.0,20.999698579452726,0.4165813087462688,0.011217426598568187,10.831334145360781,0.6029286838197482
187.0,21.003328895174803,0.4167672676421399,0.011211369224064382,10.83083582699944,0.6029379419016571
188.0,21.00695847111887,0.41695322684332375,0.011205314267916317,10.830337585260272,0.6029479591637904
189.0,21.010587306866427,0.41713918626528956,0.011199261726667964,10.829839420225063,0.6029554098749825
190.0,21.01421540199925,0.4173251458234976,0.011193211601133261,10.829341331975574,0.6029642364234512
191.0,21.017842756099434,0.41751110543341435,0.011187163892415194,10.828843320593538,0.6029736024532927
192.0,21.021469368749347,0.4176970650105371,0.011181118601587747,10.828345386160672,0.6029826641003162
