k,PSNR,SSIM,mse,Log-Gradient,Angle
0.0,20.31270595003022,0.3821249325074663,0.0,10.925179522765726,0.5954167292918733
1.0,20.31586150234721,0.3822772197744628,0.010177816857890409,10.924747996620974,0.6008174143044369
2.0,20.319591524087528,0.3824598381411242,0.012219263115173226,10.92424081356236,0.6008455881452424
3.0,20.3233497434056,0.3826441964256581,0.012350816547377845,10.923729929813573,0.6008457996324679
4.0,20.32711084820797,0.38282879211212645,0.01236434243397327,10.923218627590103,0.6008587035441689
5.0,20.330872636847204,0.38301348075409924,0.012364684084980891,10.922707198591526,0.6008766033816343
6.0,20.33463475198138,0.3831982368859857,0.012362320147191365,10.922195692523806,0.6008899060139247
7.0,20.338397121883254,0.383383054834236,0.012359258733097891,10.921684120713252,0.6008982702143378
8.0,20.342159724375538,0.3835679327872379,0.012355923936044233,10.921172487023082,0.6009115273254452
9.0,20.345922552305943,0.3837528701223289,0.012352481576927839,10.920660793064638,0.6009247019910088
10.0,20.34968560288441,0.3839378665838064,0.01234898994228146,10.920149039591278,0.6009364667435663
11.0,20.353448874350875,0.38412292196890335,0.01234546544094237,10.91963722707796,0.6009484937592675
12.0,20.35721236589666,0.3843080361914277,0.01234192403326845,10.91912535582627,0.6009605973929941
13.0,20.360976076983626,0.38449320919605556,0.012338366817785997,10.918613426078993,0.6009724406765268
14.0,20.36474000708821,0.38467844092420633,0.012334797008576537,10.918101438013567,0.600984052797735
15.0,20.368504155707676,0.38486373130933416,0.012331218286268552,10.917589391772292,0.6009950379379329
16.0,20.37226852241933,0.38504908029701146,0.012327633464882646,10.917077287466128,0.6010087827522469
17.0,20.376033106796502,0.3852344878340596,0.012324042961925994,10.916565125189814,0.6010212172251591
18.0,20.37979790849189,0.3854199538751905,0.01232044754097468,10.916052905013728,0.6010330984758173
19.0,20.38356292713313,0.38560547837627196,0.012316849241118326,10.915540626994867,0.60104518745662
20.0,20.387328162372604,0.38579106129422597,0.012313249221754781,10.915028291190234,0.6010572596661431
21.0,20.39109361383523,0.3859767025804997,0.01230964681894674,10.914515897660321,0.6010693050564284
22.0,20.394859281161924,0.3861624021885672,0.012306041604791203,10.914003446463216,0.6010813484777274
23.0,20.39862516401954,0.38634816007421224,0.012302436366690955,10.913490937640507,0.6010933783869847
24.0,20.40239126207508,0.38653397619318736,0.012298830361007727,10.912978371234336,0.6011054269806105
25.0,20.406157574995557,0.3867198505012064,0.012295224175546965,10.912465747289243,0.6011174145780754
26.0,20.40992410244791,0.3869057829539359,0.0122916174379872,10.911953065836382,0.601129418424822
27.0,20.41369084409886,0.3870917735069661,0.012288009236615494,10.911440326908883,0.6011414032520827
28.0,20.417457799614887,0.3872778221158247,0.012284400730591649,10.91092753054964,0.6011533546180984
29.0,20.421224968662205,0.3874639287359541,0.012280792373017529,10.91041467679916,0.6011652426900189
30.0,20.424992350906713,0.3876500933227121,0.012277184170010879,10.909901765697764,0.6011776187067072
31.0,20.428759946013958,0.3878363158313713,0.01227357612586671,10.909388797285654,0.6011901333933876
32.0,20.43252775364913,0.3880225962171202,0.012269968151131946,10.90887577160168,0.6012025207356969
33.0,20.436295773477013,0.3882089344350388,0.012266360161045195,10.908362688683612,0.6012147653980745
34.0,20.440064005162,0.38839533044011837,0.01226275140099603,10.907849548569601,0.6012269124795384
35.0,20.44383244836807,0.3885817841872517,0.01225914195708225,10.907336351299687,0.6012389917255827
36.0,20.447601102758757,0.38876829563123366,0.012255531932590843,10.906823096910323,0.6012510439217966
37.0,20.451369967997174,0.38895486472676266,0.01225192135878286,10.906309785442865,0.601263026033415
38.0,20.455139043745984,0.3891414914284352,0.01224831069238567,10.905796416937525,0.6012749613424456
39.0,20.45890832966743,0.38932817569073425,0.012244700128961363,10.905282991434193,0.6012868070145295
40.0,20.46267782542329,0.3895149174680654,0.012241089669765096,10.90476950897279,0.6012985905629316
41.0,20.466447530674895,0.38970171671469656,0.012237479315813371,10.904255969593283,0.6013103038715214
42.0,20.47021744508313,0.3898885733848391,0.012233869067921278,10.903742373335698,0.6013220241108193
43.0,20.473987568308413,0.3900754874325567,0.012230258926733793,10.903228720240103,0.6013338467914027
44.0,20.477757900010726,0.39026245881183536,0.012226648892751863,10.902715010346634,0.6013456558609546
45.0,20.48152843984957,0.3904494874765498,0.012223038966354476,10.902201243695483,0.6013574383342767
46.0,20.48529918748399,0.39063657338047153,0.012219429147816676,10.901687420326907,0.601369150494086
47.0,20.489070142572572,0.3908237164772716,0.012215819437325146,10.90117354028123,0.6013808716011931
48.0,20.492841304773446,0.3910109167205034,0.012212209834990823,10.90065960359884,0.6013926053021661
49.0,20.496612673744266,0.3911981740636324,0.01220860034086011,10.9001456103202,0.6014042343465112
50.0,20.500384249142215,0.3913854884600128,0.01220499095492393,10.89963156048584,0.6014157253535471
51.0,20.504156030624014,0.3915728598628932,0.012201381677125821,10.899117454136366,0.6014272569171052
52.0,20.507928017845938,0.3917602882254155,0.01219777250736855,10.898603291312455,0.6014387501702368
53.0,20.51170021046376,0.39194777350061943,0.01219416344552003,10.898089072054855,0.6014501445292976
54.0,20.51547260813281,0.3921353156414435,0.012190554491418298,10.897574796404399,0.6014615746824944
55.0,20.519245210507933,0.3923229146007176,0.012186945644875897,10.897060464401985,0.601473502244636
56.0,20.523018017243512,0.3925105703311617,0.012183336905683559,10.896546076088594,0.6014854397258106
57.0,20.526791027993454,0.3926982827853951,0.012179728273613527,10.896031631505283,0.601497345116439
58.0,20.530564242411202,0.39288605191593823,0.012176119748422547,10.895517130693184,0.6015091204954536
59.0,20.534337660149724,0.39307387767519053,0.01217251132985417,10.895002573693514,0.6015208411930965
60.0,20.538111280861514,0.3932617600154639,0.012168903017641154,10.89448796054756,0.6015323667058534
61.0,20.541885104198606,0.39344969888894976,0.012165294811507328,10.893973291296694,0.6015445672802265
62.0,20.54565912981254,0.3936376942477446,0.01216168671116936,10.893458565982368,0.6015567270457198
63.0,20.549433357354406,0.3938257460438424,0.012158078716338085,10.892943784646105,0.6015687840326179
64.0,20.553207786474808,0.39401385422911545,0.012154470826720344,10.89242894732952,0.6015810729440106
65.0,20.556982416823878,0.3942020187553397,0.012150863042019594,10.891914054074299,0.6015931833154994
66.0,20.560757248051278,0.39439023957418895,0.012147255361937425,10.891399104922213,0.6016051857481434
67.0,20.564532279806194,0.3945785166372362,0.012143647786174303,10.89088409991511,0.6016171994256903
68.0,20.568307511737345,0.39476684989593624,0.012140040314430625,10.890369039094924,0.6016294004082706
69.0,20.572082943492962,0.3949552393016334,0.012136432946407249,10.889853922503667,0.601641553415852
70.0,20.575858574720804,0.39514368480559225,0.012132825635080984,10.889338750183486,0.6016535586697991
71.0,20.57963440506817,0.3953321863589439,0.012129218353950767,10.888823522176644,0.6016654343153575
72.0,20.583410434181864,0.3955207439127322,0.012125611180199915,10.888308238525386,0.6016773112119469
73.0,20.58718666170823,0.3957093574178909,0.012122004113592884,10.887792899272041,0.601689133691901
74.0,20.590963087293126,0.39589802682524167,0.01211839715389285,10.887277504459016,0.6017007754540327
75.0,20.594739710581933,0.3960867520855052,0.012114790300861744,10.886762054128802,0.6017122132615089
76.0,20.598516531219566,0.3962755331492979,0.012111183554260581,10.886246548323975,0.6017235421781728
77.0,20.602293548850454,0.39646436996712814,0.012107576913849852,10.885730987087186,0.6017348943978391
78.0,20.60607076311856,0.3966532624894013,0.012103970379389702,10.885215370461175,0.6017463259048851
79.0,20.60984817366736,0.3968422106664053,0.012100363950640203,10.88469969848876,0.60175783751061
80.0,20.613625780139856,0.3970312144483477,0.01209675762736162,10.884183971212844,0.6017693952744126
81.0,20.617403582178582,0.39722027378530006,0.012093151409314523,10.883668188676412,0.6017809419891601
82.0,20.62118157942558,0.3974093886272529,0.012089545296259965,10.88315235092253,0.601792868606393
83.0,20.624959771522423,0.3975985589240729,0.012085939287959813,10.882636457994346,0.6018050113600913
84.0,20.628738158110206,0.39778778462552883,0.012082333384176674,10.882120509935097,0.6018174091522887
85.0,20.63251673882955,0.39797706568129015,0.012078727584673984,10.881604506788095,0.6018298204752499
86.0,20.63629551332059,0.3981664020409092,0.012075121889216372,10.88108844859674,0.6018420384657238
87.0,20.64007448122298,0.3983557936538336,0.012071516297569388,10.880572335404512,0.6018539519680264
88.0,20.643853642175912,0.3985452404694149,0.01206791080949978,10.880056167254976,0.6018680970635274
89.0,20.64763299581808,0.3987347424368885,0.012064305424775565,10.879539944191777,0.6018792487934332
90.0,20.65141254178771,0.39892429950538605,0.012060700143165888,10.879023666258648,0.6018903822702587
91.0,20.65519227972255,0.39911391162394066,0.012057094964441203,10.878507333499401,0.6019025857095773
92.0,20.658972209259865,0.39930357874146427,0.012053489888373244,10.877990945957933,0.601915750390776
93.0,20.662752330036437,0.3994933008067838,0.012049884914734936,10.877474503678222,0.6019292467556695
94.0,20.66653264168858,0.39968307776859485,0.01204628004330055,10.876958006704337,0.6019424149869389
95.0,20.670313143852113,0.399872909575514,0.012042675273845543,10.876441455080418,0.6019549907081309
96.0,20.67409383616239,0.4000627961760365,0.012039070606146578,10.8759248488507,0.6019671452446649
97.0,20.677874718254277,0.4002527375185505,0.012035466039981553,10.875408188059493,0.601978679045576
98.0,20.681655789762146,0.40044273355134047,0.012031861575129492,10.874891472751196,0.6019897853345327
99.0,20.685437050319926,0.400632784222588,0.01202825720881957,10.874374702970297,0.6020013230402773
100.0,20.689218499561036,0.40082288948036776,0.012024652939805367,10.873857878761363,0.6020132728898769
101.0,20.69300013711841,0.4010130492726498,0.012021048767941295,10.87334100016905,0.6020259219490004
102.0,20.69678196262452,0.40120326354728936,0.012017444693086844,10.872824067238097,0.6020387261589818
103.0,20.700563975711354,0.4013935322520496,0.012013840715106016,10.872307080013327,0.6020516095505211
104.0,20.704346176010397,0.4015838553345749,0.01201023683386739,10.871790038539645,0.6020644429170168
105.0,20.708128563152677,0.40177423274241364,0.012006633049243933,10.871272942862042,0.6020774552641512
106.0,20.71191113676873,0.4019646644230031,0.012003029361112786,10.870755793025593,0.6020909848299151
107.0,20.715693896488617,0.40215515032367727,0.011999425769355084,10.870238589075452,0.6021044413997999
108.0,20.71947684194191,0.40234569039165563,0.011995822273855808,10.869721331056866,0.6021175449445899
109.0,20.723259972757692,0.40253628457406226,0.011992218874503495,10.869204019015159,0.6021302676858629
110.0,20.727043288564573,0.4027269328179072,0.011988615571190091,10.868686652995743,0.6021429028486704
111.0,20.7308267889907,0.40291763507010786,0.01198501236381077,10.86816923304411,0.6021554833956418
112.0,20.734610473663693,0.4031083912774536,0.011981409237963515,10.867651759205986,0.6021679579372711
113.0,20.73839434221073,0.4032992013866589,0.011977806179646682,10.867134231527318,0.6021801600018307
114.0,20.742178394258474,0.4034900653442961,0.011974203217770926,10.866616650053844,0.6021921689147671
115.0,20.74596262943313,0.40368098309686057,0.011970600352266757,10.866099014831384,0.6022061726568434
116.0,20.74974704736041,0.40387195459072395,0.01196699758306578,10.865581325905847,0.6022194745172605
117.0,20.753531647665543,0.4040629797721602,0.011963394910100301,10.86506358332322,0.6022321021940827
118.0,20.757316429973276,0.4042540585873415,0.011959792333302924,10.86454578712958,0.6022447830288261
119.0,20.761101393907865,0.40444519098232184,0.011956189852606422,10.864027937371088,0.6022572653272379
120.0,20.764886539093087,0.4046363769030526,0.011952587467943457,10.863510034093986,0.6022688320122008
121.0,20.768671865152246,0.4048276162953986,0.011948985179246424,10.862992077344604,0.6022820313014968
122.0,20.772457371708143,0.40501890910508537,0.011945382986446988,10.862474067169357,0.602294482368947
123.0,20.77624305838311,0.40521025527775634,0.011941780885250958,10.86195600361404,0.6023058252428356
124.0,20.780028924798973,0.405401654758943,0.011938178860188048,10.86143788672217,0.6023170984509679
125.0,20.783814970577097,0.405593107494066,0.011934576928895827,10.860919716540419,0.6023284279503889
126.0,20.787601195338347,0.4057846134284477,0.011930975091326203,10.86040149311555,0.6023397792365366
127.0,20.791387598703096,0.4059761725073067,0.011927373335905064,10.85988321649439,0.602351338613614
128.0,20.79517418029125,0.4061677846757446,0.011923771654769077,10.859364886723847,0.602363294931646
129.0,20.798960939722228,0.40635944987876044,0.01192017006779676,10.858846503850943,0.6023754783199013
130.0,20.80274787661494,0.40655116806125463,0.011916568574940951,10.858328067922782,0.6023874744449422
131.0,20.80653499058785,0.4067429391680113,0.011912967176151689,10.85780957898656,0.602399223388138
132.0,20.810322281258884,0.40693476314372273,0.011909365871376133,10.857291037089553,0.6024106234024442
133.0,20.814109748245542,0.4071266399329582,0.011905764660557986,10.85677244227913,0.6024212059187969
134.0,20.817897391164802,0.40731856948019857,0.01190216354363738,10.856253794602742,0.6024311608890994
135.0,20.821685209633163,0.4075105517298017,0.011898562520550542,10.855735094107924,0.6024412415147402
136.0,20.82547320326664,0.40770258662604003,0.01189496157129654,10.855216340841233,0.6024511478532459
137.0,20.829261371680733,0.4078946741130438,0.01189136069320081,10.854697534849738,0.602461179387855
138.0,20.833049714490443,0.40808681413486486,0.01188775989165206,10.854178676181368,0.6024729833494192
139.0,20.836838231310292,0.4082790066354323,0.011884159159547714,10.853659764883925,0.6024845569675571
140.0,20.840626921754343,0.40847125155856895,0.011880558475515541,10.853140801004697,0.6024954726157744
141.0,20.844415785436148,0.4086635488480053,0.011876957867852709,10.852621784591863,0.602505753055813
142.0,20.848204821968842,0.4088558984473673,0.01187335733690836,10.852102715693693,0.6025165260759123
143.0,20.851994030965038,0.4090483003001681,0.011869756883053875,10.85158359435854,0.6025271769526058
144.0,20.855783412036907,0.4092407543498318,0.01186615650315757,10.851064420634728,0.6025377125716788
145.0,20.85957296479611,0.40943326053965995,0.011862556165587327,10.850545194569658,0.6025484337435375
146.0,20.863362688853876,0.4096258188128698,0.011858955880028419,10.850025916211182,0.6025594064025286
147.0,20.86715258382093,0.4098184291125612,0.011855355659325549,10.849506585607648,0.6025706064110337
148.0,20.870942649307516,0.4100110913817467,0.011851755513944032,10.848987202807812,0.6025819278784321
149.0,20.874732884923432,0.4102038055633179,0.011848155444495507,10.848467767860523,0.6025929748421958
150.0,20.878523290277965,0.41039657160006965,0.011844555451612278,10.847948280814707,0.6026034357739974
151.0,20.882313864979956,0.410589389434695,0.011840955535946796,10.847428741719378,0.6026144175580507
152.0,20.88610460863775,0.410782259009782,0.011837355696103443,10.846909150623642,0.6026261073470734
153.0,20.889895520859227,0.4109751802678206,0.011833755932285151,10.84638950757668,0.6026377349412774
154.0,20.893686601251776,0.411168153151184,0.0118301562452305,10.845869812627768,0.602649191055359
155.0,20.89747784942231,0.4113611776021577,0.011826556635697566,10.84535006582626,0.6026604242855057
156.0,20.901269264977273,0.4115542535629173,0.011822957104463237,10.844830267221594,0.6026714122478051
157.0,20.905060847522627,0.41174738097552305,0.011819357651945521,10.8443104168633,0.6026822342763432
158.0,20.908852596663845,0.41194055978194827,0.011815758276305884,10.843790514801002,0.6026926895831305
159.0,20.912644512005922,0.4121337899240596,0.011812158977581599,10.843270561084418,0.6027026576943036
160.0,20.916436593153378,0.41232707134360974,0.011808559754866948,10.842750555763372,0.6027125920396558
161.0,20.92022883971026,0.4125204039822568,0.011804960609215202,10.842230498887758,0.6027226979405071
162.0,20.924021251280102,0.41271378778155815,0.01180136151429738,10.841710390507105,0.6027327188265551
163.0,20.92781382746599,0.41290722268295627,0.011797762490328628,10.841190230671346,0.6027426794426037
164.0,20.93160656787051,0.41310070862779097,0.011794163544338902,10.840670019430629,0.6027528406767889
165.0,20.935399472095767,0.41329424555731187,0.011790564677316035,10.840149756835185,0.6027629607245603
166.0,20.93919253974338,0.41348783341264367,0.011786965890469472,10.83962944293533,0.6027729303478199
167.0,20.94298577041449,0.4136814721348288,0.011783367185023121,10.839109077781464,0.6027828757196522
168.0,20.946779163709735,0.4138751616647876,0.011779768562214054,10.838588661424067,0.6027926761569457
169.0,20.950572719229292,0.4140689019433428,0.011776170023291014,10.838068193913703,0.6028024578533747
170.0,20.95436643657284,0.4142626929112221,0.011772571568845881,10.837547675301021,0.6028120670170359
171.0,20.958160315339562,0.41445653450902903,0.011768973199611094,10.837027105636757,0.6028219154708071
172.0,20.961954355128153,0.4146504266772781,0.011765374916991487,10.836506484971723,0.602831707707321
173.0,20.965748555536834,0.41484436935637636,0.01176177672239827,10.83598581335682,0.6028414636954776
174.0,20.96954291616332,0.4150383624866339,0.01175817861724733,10.835465090843027,0.6028516740744764
175.0,20.973337436604858,0.4152324060082248,0.011754580596888692,10.834944317481368,0.6028620327598159
176.0,20.97713211645818,0.4154264998612545,0.011750982635505367,10.834423493322744,0.6028724057347764
177.0,20.980926955319532,0.4156206439857144,0.011747384766378018,10.833902618418348,0.602882875387526
178.0,20.984721952784685,0.41581483832148325,0.011743786990888702,10.833381692819453,0.6028943196487723
179.0,20.988517108448896,0.41600908280833687,0.011740189310412994,10.83286071657742,0.6029040310656922
180.0,20.992312421906938,0.41620337738594576,0.011736591726318477,10.832339689743687,0.6029149196642011
181.0,20.996107892753088,0.41639772199388186,0.011732994239963391,10.83181861236978,0.6029226385374921
182.0,20.999903520581135,0.4165921165716078,0.011729396850927007,10.831297484507292,0.6029323830812473
183.0,21.00369930498436,0.4167865610584715,0.011725799559509075,10.830776306207895,0.6029416536644348
184.0,21.007495245555564,0.4169810553937396,0.011722202367068446,10.83025507752334,0.6029509799535723
185.0,21.01129134188703,0.41717559951655997,0.011718605270439627,10.829733798505504,0.6029575899801812
186.0,21.015087593570563,0.41737019336596676,0.011715008270506349,10.829212469206356,0.602966468730324
187.0,21.018884000197463,0.41756483688089535,0.011711411368670616,10.82869108967794,0.6029756448586073
188.0,21.022680561358527,0.4177595300001759,0.011707814565431553,10.828169659972383,0.6029855770312756
189.0,21.026477276644062,0.4179542726625443,0.01170421785806828,10.827648180141846,0.6029955164001909
190.0,21.030274145643865,0.4181490648066178,0.0117006212480685,10.827126650238581,0.6030054739663847
191.0,21.03407116794724,0.41834390637090685,0.011697024736911468,10.826605070314919,0.6030152218662528
192.0,21.037868343142986,0.4185387972938244,0.01169342832606641,10.826083440423275,0.6030247918720731
193.0,21.041665670819402,0.4187337375136773,0.01168983201699129,10.825561760616152,0.6030343076423653
