k,PSNR,SSIM,mse,Log-Gradient,Angle
0.0,20.31270595003022,0.3821249325074663,0.0,10.925179522765726,0.5954167292918733
1.0,20.315861114903303,0.38227720107430035,0.010176567367054294,10.924748049607205,0.6008174129583209
2.0,20.319590291126563,0.3824597783012021,0.012216530447366312,10.92424098183356,0.6008455824797021
3.0,20.32334720327207,0.3826440727745279,0.01234657418643247,10.923730276151092,0.6008457899391783
4.0,20.32710653879753,0.38282858193249863,0.012358585331836943,10.92321921485079,0.6008586936220909
5.0,20.33086609587382,0.383013161300456,0.012357411868163313,10.922708089672136,0.6008765914370741
6.0,20.33462551702076,0.38319778538767874,0.012353533419259169,10.922196950354868,0.6008898729527316
7.0,20.338384730381662,0.38338244849622355,0.012348958391266415,10.921685808257644,0.6008982260986425
8.0,20.3421437136527,0.38356714879030623,0.012344110963376884,10.921174667275505,0.6009114815067785
9.0,20.345902459556214,0.3837518856232132,0.012339157002346156,10.920663529051374,0.6009246431248
10.0,20.34966096517731,0.3839366587152557,0.012334154812766274,10.920152394370065,0.6009363903891779
11.0,20.35341922863161,0.38412146783973533,0.0123291208104526,10.919641263737892,0.600948406889278
12.0,20.357177248986446,0.3843063128865547,0.012324070962537558,10.919130137487741,0.6009604918563732
13.0,20.36093502558005,0.38449119377653834,0.012319006368068817,10.918619015893624,0.6009723167379435
14.0,20.364692557765505,0.38467611042727584,0.012313930244161839,10.918107899164163,0.6009839067927275
15.0,20.36844984491705,0.3848610627484435,0.012308846271699429,10.917596787472798,0.6009948637711365
16.0,20.3722068864893,0.38504605066185427,0.012303757269087513,10.917085680961582,0.6010086053026013
17.0,20.375963681933197,0.38523107409063223,0.012298663653752024,10.916574579756317,0.601021001099303
18.0,20.379720230779363,0.38541613296581084,0.0122935661887622,10.916063483958395,0.6010328593353788
19.0,20.383476532533628,0.38560122721961626,0.012288466916044984,10.915552393655817,0.6010449186033884
20.0,20.387232586726913,0.38578635678537837,0.012283366995884129,10.915041308936537,0.6010569627533616
21.0,20.39098839286293,0.3859715215909479,0.012278265760991718,10.914530229891998,0.6010689769127487
22.0,20.394743950461752,0.3861567215663016,0.012273162787888725,10.914019156611161,0.6010809889555697
23.0,20.398499259069652,0.386341956643712,0.012268060864579853,10.913508089166474,0.6010929814103114
24.0,20.402254318233375,0.3865272267554758,0.012262959245876663,10.912997027630922,0.6011049938732033
25.0,20.406009127499974,0.3867125318338904,0.01225785852213266,10.912485972079839,0.6011169440710727
26.0,20.40976368641671,0.3868978718112291,0.01225275831886851,10.911974922575144,0.6011289022935974
27.0,20.41351799453096,0.38708324661973226,0.01224765772246123,10.911463879180722,0.6011408435495792
28.0,20.417272051390167,0.3872686561916295,0.01224255789728018,10.91095284197018,0.6011527523008479
29.0,20.42102585654179,0.3874541004590688,0.012237459295065395,10.910441811014698,0.6011645956577824
30.0,20.42477940953328,0.3876395793541902,0.012232361921981552,10.909930786385253,0.6011769462708852
31.0,20.42853270991207,0.38782509280905825,0.01222726578236932,10.90941976815266,0.601189415308624
32.0,20.432285757225507,0.38801064075568736,0.01222217078660147,10.908908756386362,0.6012017581957366
33.0,20.43603855102087,0.3881962231260451,0.012217076849605374,10.908397751154682,0.6012139559908173
34.0,20.439791090845336,0.3883818398520316,0.012211983212096707,10.907886752526304,0.6012260494004592
35.0,20.44354337624599,0.38856749086548553,0.01220688996586365,10.907375760571753,0.6012380784920102
36.0,20.447295406769776,0.3887531760981992,0.012201797210527563,10.906864775357958,0.6012500744602566
37.0,20.45104718196353,0.3889388954818827,0.012196704981618197,10.906353796956703,0.6012620050801596
38.0,20.454798701373953,0.3891246489481952,0.012191613734997827,10.905842825438604,0.6012738873134332
39.0,20.458549964547615,0.389310436428731,0.012186523666284674,10.905331860873916,0.6012856848737951
40.0,20.462300971030967,0.38949625785503067,0.012181434776777689,10.9048209033329,0.6012974154085607
41.0,20.46605172037029,0.389682113158555,0.012176347067537415,10.904309952885832,0.6013090779204489
42.0,20.469802212111766,0.38986800227069623,0.012171260539423292,10.903799009603004,0.6013207291390793
43.0,20.47355244580141,0.3900539251228141,0.012166175193124922,10.903288073554732,0.6013324796339354
44.0,20.477302420985104,0.3902398816461708,0.012161091029188347,10.902777144811356,0.601344222405715
45.0,20.48105213720859,0.3904258717719771,0.012156008048037993,10.90226622344325,0.6013559514672345
46.0,20.48480159401745,0.3906118954313745,0.012150926249994766,10.901755309520812,0.6013675989121823
47.0,20.48855079095713,0.39079795255544786,0.012145845635291605,10.90124440311448,0.6013792455169755
48.0,20.492299727572938,0.39098404307520657,0.0121407662040863,10.90073350429472,0.601390920989187
49.0,20.496048403410008,0.3911701669216095,0.012135687956472421,10.900222613132042,0.6014024951237061
50.0,20.499796818013362,0.3913563240255338,0.012130610892488729,10.89971172969699,0.6014139366151121
51.0,20.503544970927848,0.39154251431780146,0.012125535012126905,10.89920085406015,0.6014253756498349
52.0,20.507292861698176,0.3917287377291688,0.012120460315338482,10.898689986292142,0.6014368081099224
53.0,20.511040489868915,0.391914994190326,0.012115386802040629,10.898179126463635,0.6014481415849132
54.0,20.51478785498447,0.3921012836318996,0.012110314472121261,10.897668274645333,0.6014594122197644
55.0,20.51853495658911,0.3922876059844514,0.012105243325443115,10.897157430907992,0.6014712329157771
56.0,20.522281794226963,0.3924739611784778,0.012100173361847866,10.896646595322398,0.6014830940199343
57.0,20.526028367441988,0.3926603491444118,0.012095104581159156,10.89613576795939,0.6014949207002692
58.0,20.529774675778015,0.39284676981262007,0.012090036983185717,10.895624948889846,0.6015066307373395
59.0,20.533520718778732,0.3930332231134012,0.012084970567723606,10.895114138184693,0.6015182786727244
60.0,20.537266495987655,0.3932197089769998,0.012079905334558636,10.894603335914898,0.6015297269001881
61.0,20.541012006948183,0.3934062273335958,0.01207484128346827,10.894092542151473,0.6015417239933945
62.0,20.544757251203546,0.39359277811329446,0.012069778414223346,10.893581756965478,0.6015537769236108
63.0,20.54850222829684,0.3937793612461457,0.012064716726589632,10.893070980428016,0.6015657958248445
64.0,20.552246937771017,0.3939659766621278,0.0120596562203291,10.892560212610235,0.6015779319672977
65.0,20.555991379168866,0.3941526242911642,0.012054596895201294,10.89204945358333,0.6015899787290037
66.0,20.559735552033068,0.39433930406310874,0.012049538750964263,10.891538703418536,0.6016019237701259
67.0,20.56347945590612,0.39452601590775443,0.01204448178737556,10.891027962187145,0.6016138089796473
68.0,20.567223090330387,0.3947127597548364,0.012039426004193264,10.890517229960484,0.6016258595718504
69.0,20.57096645484811,0.39489953553401147,0.012034371401176473,10.89000650680993,0.6016379446083772
70.0,20.574709549001362,0.3950863431748824,0.012029317914211466,10.889495792806983,0.601649893183157
71.0,20.57845237233209,0.3952731826069939,0.012024265549971526,10.888985088023176,0.6016616843651467
72.0,20.58219492438208,0.3954600537598201,0.012019214369733959,10.888474392530014,0.6016734436256738
73.0,20.585937204692986,0.3956469565627729,0.012014164373324117,10.887963706399047,0.6016851826847502
74.0,20.589679212806324,0.39583389094520904,0.012009115560566599,10.88745302970187,0.6016968036537121
75.0,20.593420948263464,0.39602085683640653,0.012004067931285415,10.886942362510126,0.6017082004936634
76.0,20.597162410605634,0.39620785416559395,0.01199902148530436,10.886431704895498,0.6017194485211332
77.0,20.600903599373925,0.39639488286194197,0.011993976222447248,10.885921056929726,0.6017306623479505
78.0,20.60464451410929,0.39658194285454457,0.011988932142538294,10.885410418684584,0.6017419489436732
79.0,20.608385154352522,0.3967690340724384,0.011983889245402272,10.884899790231898,0.6017533117481026
80.0,20.61212551964431,0.39695615644460663,0.011978847530864735,10.88438917164354,0.6017647475320652
81.0,20.615865609525173,0.39714330989996266,0.011973806998752326,10.883878562991427,0.6017761970432479
82.0,20.619605423535514,0.3973304943673502,0.011968767648892783,10.88336796434752,0.6017878097369628
83.0,20.62334496121558,0.3975177097755702,0.011963729481115355,10.88285737578383,0.6017996849194085
84.0,20.6270842221055,0.39770495605335393,0.011958692495250622,10.882346797372408,0.6018119062763571
85.0,20.63082320574523,0.3978922331293538,0.011953656691130852,10.881836229185353,0.6018241869191706
86.0,20.634561911674638,0.39807954093219816,0.01194862206858998,10.881325671294814,0.6018363872377839
87.0,20.638300339433428,0.3982668793904187,0.011943588627463766,10.880815123772978,0.6018481620236202
88.0,20.642038488561163,0.3984542484324951,0.011938556367589765,10.88030458669208,0.6018616392573661
89.0,20.645776358597274,0.398641647986867,0.011933525288807504,10.879794060124407,0.6018737036967373
90.0,20.649513949081086,0.3988290779818782,0.011928495390958376,10.879283544142279,0.6018847167341893
91.0,20.653251259551745,0.39901653834584794,0.01192346667388581,10.878773038818073,0.6018960735214168
92.0,20.65698828954829,0.3992040290070078,0.011918439137435162,10.878262544224203,0.6019086915312507
93.0,20.660725038609627,0.3993915498935396,0.011913412781453839,10.877752060433133,0.6019219007739132
94.0,20.664461506274513,0.39957910093356447,0.011908387605791259,10.87724158751737,0.6019351947955253
95.0,20.668197692081588,0.3997666820551402,0.011903363610298805,10.876731125549464,0.6019479347823266
96.0,20.67193359556935,0.3999542931862707,0.011898340794829721,10.876220674602015,0.6019601906129306
97.0,20.67566921627617,0.4001419342548993,0.011893319159239399,10.875710234747663,0.6019719615852182
98.0,20.679404553740284,0.4003296051888901,0.011888298703384889,10.875199806059097,0.6019831176103084
99.0,20.683139607499808,0.40051730591607954,0.011883279425984558,10.874689388609049,0.6019941255409748
100.0,20.686874377092703,0.40070503636422977,0.011878261324462647,10.874178982470301,0.6020057579347003
101.0,20.69060886205683,0.4008927964610251,0.01187324439875265,10.873668587715681,0.6020177460152188
102.0,20.694343061929903,0.40108058613412156,0.011868228648793513,10.87315820441806,0.6020303412194526
103.0,20.698076976249506,0.40126840531109603,0.01186321407452968,10.872647832650355,0.6020430090828004
104.0,20.70181060455311,0.4014562539194823,0.01185820067591092,10.872137472485525,0.60205573182676
105.0,20.70554394637803,0.40164413188673026,0.01185318845289202,10.871627123996575,0.6020684103777326
106.0,20.70927700126148,0.40183203914025173,0.011848177405432798,10.871116787256556,0.6020814199166366
107.0,20.71300976874054,0.4020199756073972,0.011843167533497827,10.870606462338557,0.6020947594159382
108.0,20.71674224835215,0.40220794121545,0.011838158837056325,10.870096149315717,0.6021079600120182
109.0,20.72047443963314,0.4023959358916484,0.011833151316081897,10.869585848261218,0.6021207690974846
110.0,20.724206342120205,0.40258395956315113,0.011828144970552262,10.869075559248284,0.6021332768807663
111.0,20.72793795534992,0.4027720121570866,0.01182313980044933,10.86856528235018,0.6021457075294874
112.0,20.731669278858732,0.4029600936004989,0.011818135793075465,10.868055017640351,0.6021581011662426
113.0,20.735400312182964,0.4031482038203941,0.011813132930839033,10.867544765192452,0.6021703814367964
114.0,20.739131054858817,0.40333634274370683,0.011808131244808973,10.867034525079871,0.6021823276128969
115.0,20.742861506422358,0.4035245102973162,0.011803130735005954,10.866524297376042,0.6021944191907088
116.0,20.746591666409554,0.40371270640805323,0.011798131401452694,10.866014082154441,0.6022081754655838
117.0,20.750321534356225,0.4039009310026869,0.011793133244173422,10.865503879488589,0.6022211929182848
118.0,20.754051109798088,0.4040891840079246,0.011788136263193623,10.864993689452044,0.6022335996015976
119.0,20.757780392270732,0.4042774653504118,0.01178314045853985,10.864483512118417,0.6022461081052484
120.0,20.761509381309608,0.4044657749567568,0.011778145830239416,10.863973347561355,0.6022583653673732
121.0,20.76523807645007,0.404654112753488,0.011773152378320257,10.86346319585455,0.6022695783352773
122.0,20.76896647722735,0.4048424786670955,0.011768160102810636,10.862953057071737,0.6022828195043669
123.0,20.77269458317655,0.40503087262399856,0.011763169003738904,10.862442931286694,0.6022949822563248
124.0,20.776422393832647,0.4052192945505748,0.011758179061598956,10.86193281857028,0.6023061319595592
125.0,20.78014990873051,0.40540774437313276,0.011753190289119593,10.861422718995588,0.6023172332744685
126.0,20.783877127404892,0.4055962220179283,0.011748202691276,10.860912632636529,0.602328379884562
127.0,20.787604049390414,0.4057847274111626,0.01174321626078594,10.86040255956705,0.6023395476445124
128.0,20.791330674221587,0.4059732604789866,0.011738230981245892,10.85989249986112,0.6023508969237502
129.0,20.7950570014328,0.40616182114747673,0.011733246877103408,10.859382453592787,0.6023626282163056
130.0,20.798783030558337,0.4063504093426767,0.011728263948416584,10.85887242083614,0.6023746147979735
131.0,20.802508761132362,0.406539024990564,0.011723282195241855,10.85836240166531,0.6023864283260992
132.0,20.80623419268892,0.40672766801705845,0.01171830161763354,10.857852396154478,0.6023980004414387
133.0,20.809959324761934,0.4069163383480266,0.011713322215643737,10.857342404377862,0.6024092695906765
134.0,20.813684156885245,0.40710503590928826,0.011708343989322068,10.856832426409722,0.6024197820205096
135.0,20.817408688592536,0.40729376062659073,0.01170336693871533,10.856322462324368,0.6024296059144316
136.0,20.821132919417412,0.4074825124256401,0.011698391060380524,10.855812512195964,0.602439469225822
137.0,20.824856848893347,0.4076712912320921,0.01169341632677298,10.855302576097323,0.6024492424272568
138.0,20.82858047655369,0.40786009697152975,0.011688442761910393,10.854792654102928,0.6024590757696632
139.0,20.832303801931648,0.4080489295694733,0.011683470356173401,10.85428274628739,0.6024702779137137
140.0,20.836026824560342,0.4082377889514024,0.011678499085578041,10.853772852724687,0.6024817437391977
141.0,20.83974954397278,0.4084266750427412,0.01167352896144491,10.853262973489162,0.6024926537796514
142.0,20.84347195970188,0.4086155877688619,0.011668559996620144,10.852753108655545,0.6025029121820226
143.0,20.84719407128045,0.4088045270550767,0.011663592191560618,10.852243258298609,0.6025133057839435
144.0,20.850915878241235,0.40899349282666186,0.01165862554674533,10.851733422493162,0.6025237704179445
145.0,20.854637380116845,0.40918248500882415,0.011653660043476798,10.851223601313464,0.6025341988267883
146.0,20.858358576439816,0.40937150352673884,0.011648695678380939,10.85071379483372,0.6025444465310379
147.0,20.862079466742575,0.4095605483055104,0.011643732438457621,10.850204003127837,0.6025552403781999
148.0,20.86580005055747,0.4097496192702142,0.011638770358493785,10.849694226270788,0.6025660629120416
149.0,20.869520327416737,0.40993871634585216,0.011633809437650525,10.849184464337567,0.602577254090768
150.0,20.873240296852522,0.41012783945738723,0.011628849676647115,10.848674717403208,0.6025882153929267
151.0,20.876959958396885,0.4103169885297325,0.01162389107622334,10.848164985542786,0.6025986318982463
152.0,20.88067931158178,0.41050616348775715,0.01161893363713885,10.847655268831414,0.6026090789088886
153.0,20.88439835593907,0.41069536425625747,0.011613977358707948,10.847145567344247,0.6026204018645372
154.0,20.888117091000534,0.41088459075999917,0.011609022240674808,10.846635881156484,0.6026318746074772
155.0,20.891835516297842,0.41107384292369864,0.011604068283884135,10.846126210343353,0.602643170326562
156.0,20.895553631362578,0.4112631206720026,0.011599115489200128,10.84561655498013,0.6026543129104791
157.0,20.89927143572622,0.4114524239295296,0.011594163857505384,10.845106915142125,0.6026652222686089
158.0,20.90298892892018,0.41164175262083846,0.011589213389700283,10.844597290904689,0.6026759215996341
159.0,20.90670611047575,0.4118311066704346,0.011584264085483374,10.844087682343213,0.6026864320103053
160.0,20.910422979924142,0.41202048600278474,0.011579315944139131,10.843578089533144,0.6026964956891451
161.0,20.91413953679647,0.4122098905422901,0.011574368963954963,10.843068512549983,0.6027061390056132
162.0,20.917855780623754,0.4123993202133191,0.011569423146080749,10.842558951469272,0.6027160133424364
163.0,20.921571710936924,0.41258877494018487,0.011564478460728791,10.842049406366085,0.6027258860879078
164.0,20.925287327266815,0.41277825464713885,0.011559534934760321,10.841539877315963,0.6027356671900136
165.0,20.92900262914418,0.4129677592583923,0.011554592572712883,10.841030364394559,0.6027454057506331
166.0,20.932717616099662,0.4131572886981254,0.011549651375311923,10.840520867677558,0.6027554016340725
167.0,20.936432287663816,0.4133468428904383,0.011544711343860493,10.840011387240681,0.6027652843806778
168.0,20.940146643367118,0.4135364217593935,0.011539772479675728,10.839501923159686,0.6027750043123832
169.0,20.94386068273993,0.41372602522901786,0.01153483478408742,10.838992475510363,0.6027847057514367
170.0,20.94757440531254,0.4139156532232717,0.011529898258436762,10.838483044368543,0.6027942767279552
171.0,20.951287810615128,0.41410530566606796,0.011524962904075274,10.837973629810088,0.6028038253688839
172.0,20.955000898177794,0.4142949824812798,0.011520028721722305,10.8374642319109,0.6028132059435337
173.0,20.95871366753053,0.4144846835927267,0.011515095712265699,10.836954850746915,0.6028228240405425
174.0,20.962426118203254,0.41467440892418156,0.011510163877202712,10.836445486394103,0.602832378095029
175.0,20.96613824972577,0.41486415839936597,0.011505233218035099,10.835936138928474,0.602841901973923
176.0,20.969850061627806,0.415053931941949,0.011500303732006317,10.835426808426037,0.6028518831308898
177.0,20.973561553438987,0.4152437294755584,0.01149537538872252,10.834917494962612,0.6028619743881654
178.0,20.977272724688852,0.41543355092377504,0.01149044822435364,10.834408198614272,0.6028720840352918
179.0,20.980983574906844,0.41562339621011796,0.01148552224036797,10.833898919457125,0.6028822854689695
180.0,20.984694103622314,0.41581326525808043,0.011480597438227682,10.833389657567313,0.6028925548773091
181.0,20.98840431036451,0.41600315799108795,0.011475673819387093,10.83288041302101,0.6029027361646896
182.0,20.99211419466261,0.41619307433250935,0.011470751385291654,10.832371185894427,0.6029135197892864
183.0,20.995823756045663,0.41638301420570284,0.011465830136533055,10.831861976263792,0.6029211463637597
184.0,20.999532994042667,0.41657297753394545,0.011460910072574647,10.831352784205356,0.6029300057181644
185.0,21.003241908182495,0.4167629642404711,0.011455991194862682,10.830843609795414,0.6029390803256337
186.0,21.00695049799394,0.4169529742484774,0.01145107350483067,10.830334453110291,0.6029482021498057
187.0,21.010658763005694,0.4171430074811066,0.01144615699973778,10.829825314226385,0.6029549341757646
188.0,21.01436670274637,0.41733306386145125,0.011441241680303216,10.829316193220132,0.602964302395271
189.0,21.018074316744464,0.4175231433125601,0.011436327547999251,10.828807090168006,0.6029740490343843
190.0,21.02178160452841,0.4177132457574387,0.0114314146042013,10.828298005146511,0.6029835327733369
191.0,21.02548856562652,0.41790337111902814,0.011426502845576446,10.827788938232139,0.6029930008705072
192.0,21.029195199567035,0.4180935193202357,0.011421592273676595,10.827279889501414,0.6030025004263574
193.0,21.03290150587808,0.4182836902839275,0.011416682890044187,10.826770859030892,0.603011879778921
