k,PSNR,SSIM,mse,Log-Gradient,Angle
0.0,20.38479303765576,0.6270611892812001,0.0,11.107227487329762,0.5751263240703384
1.0,20.387704455921998,0.6271809180750195,0.010350697645916031,11.106886657926685,0.5786988060413232
2.0,20.391020742267024,0.6273202391276782,0.011865555602772462,11.106506119635728,0.5787002903437709
3.0,20.394353349540975,0.6274604907010617,0.011951161593873872,11.106124035017848,0.578701928345806
4.0,20.397685875922328,0.6276007719517244,0.01195504159248176,11.105741962195173,0.578703867399366
5.0,20.40101685328082,0.6277409933385861,0.011949273609924543,11.105360043888226,0.5787111467450275
6.0,20.404346045662955,0.6278811396404116,0.011941493176846315,11.104978305183945,0.5787170097231007
7.0,20.407673402076682,0.6280212074608374,0.011933094727466812,11.104596752879818,0.5787238963843261
8.0,20.410998904556084,0.6281611955596293,0.011924468438365683,11.104215389435835,0.5787292583082823
9.0,20.414322546412357,0.6283011035223739,0.011915737722859716,11.103834215918125,0.5787308477006686
10.0,20.417644324485806,0.6284409311148363,0.011906952845174098,11.1034532327934,0.5787341842929988
11.0,20.420964236771564,0.6285806781707685,0.011898134274294798,11.103072440370651,0.5787374615042563
12.0,20.42428228192763,0.6287203445726958,0.011889296530409545,11.102691838869125,0.5787402726014005
13.0,20.42759845894644,0.6288599302313855,0.011880443544368777,11.10231142843426,0.5787428711375818
14.0,20.4309127673864,0.6289994351072749,0.011871585130171149,11.101931209155731,0.5787451295395026
15.0,20.434225206886918,0.6291388591673731,0.01186272435500626,11.101551181107514,0.5787467959083541
16.0,20.437535777258525,0.6292782023888132,0.011853864482844529,11.10117134433897,0.5787475394143279
17.0,20.440844478308154,0.6294174647478518,0.011845008062786691,11.100791698875103,0.5787479037135601
18.0,20.444151309889268,0.6295566462285309,0.011836147437725448,11.100412244742685,0.5787483229472943
19.0,20.44745627185315,0.6296957468112,0.011827291703395103,11.10003298194987,0.5787490276934005
20.0,20.45075936411407,0.62983476648784,0.01181844110100169,11.099653910501964,0.5787502804495755
21.0,20.45406058651061,0.6299737052379092,0.011809591999701748,11.0992750304147,0.5787516318577989
22.0,20.457359938920213,0.6301125630436157,0.011800745821477204,11.09889634170157,0.5787531053675402
23.0,20.46065742124066,0.6302513398883266,0.011791905510277575,11.098517844367633,0.5787545929083346
24.0,20.463953033360177,0.6303900357535769,0.011783070818628552,11.098139538417302,0.578756104591679
25.0,20.467246775187164,0.6305286506240054,0.011774242136950887,11.097761423850079,0.5787576977709997
26.0,20.470538646631592,0.6306671844838094,0.011765417040920049,11.09738350067046,0.5787595038515984
27.0,20.473828647596342,0.6308056373166309,0.011756596126653411,11.097005768883236,0.5787612588515676
28.0,20.47711677799706,0.6309440091076578,0.01174778025922512,11.096628228496996,0.5787629083174842
29.0,20.48040303775144,0.6310822998422343,0.01173896968034677,11.096250879516408,0.5787644800124015
30.0,20.483687426762323,0.6312205095039055,0.011730164786334733,11.095873721940288,0.5787660340536037
31.0,20.48696994495102,0.6313586380781553,0.011721365059267042,11.095496755771121,0.5787675880813995
32.0,20.490250592243136,0.6314966855508285,0.01171257105535754,11.095119981006398,0.5787690882725671
33.0,20.493529368564186,0.6316346519078544,0.011703782732268894,11.09474339764648,0.5787704950960474
34.0,20.496806273835446,0.6317725371347556,0.011694999510392629,11.094367005695151,0.5787718598450111
35.0,20.500081307981546,0.6319103412172976,0.011686221724050243,11.09399080515323,0.5787732047713053
36.0,20.503354470936994,0.632048064142034,0.011677448359908789,11.093614796026907,0.5787745447145661
37.0,20.506625762634776,0.6321857058954442,0.011668680345306279,11.093238978317208,0.5787758549986313
38.0,20.509895183009597,0.6323232664641409,0.011659918113767508,11.09286335202322,0.578777068659846
39.0,20.513162731997884,0.632460745834865,0.011651161663986163,11.092487917143847,0.5787781785936551
40.0,20.51642840953776,0.6325981439944762,0.011642410994379258,11.092112673677804,0.5787792116889351
41.0,20.51969221556909,0.6327354609299639,0.011633666103129318,11.091737621623627,0.5787801969830374
42.0,20.52295415003341,0.6328726966284386,0.011624926988220286,11.091362760979685,0.5787811842264535
43.0,20.526214212873978,0.6330098510771393,0.011616193647468024,11.090988091744164,0.5787823491608551
44.0,20.529472404035722,0.6331469242634237,0.011607466078545903,11.090613613915087,0.5787837620433102
45.0,20.53272872346529,0.6332839161747753,0.01159874427900642,11.090239327490304,0.5787851315164944
46.0,20.535983171110995,0.6334208267987993,0.011590028246299844,11.089865232467506,0.578786514447931
47.0,20.53923574692286,0.6335576561232289,0.01158131797778981,11.089491328844213,0.5787878976493938
48.0,20.542486450850895,0.6336944041359239,0.011572613019271623,11.089117616619008,0.5787892697344604
49.0,20.545735282848664,0.6338310708248953,0.011563913785716688,11.088744095788586,0.5787905155559953
50.0,20.548982242871475,0.633967656178266,0.011555220315970423,11.08837076634982,0.5787916102991154
51.0,20.552227330876338,0.6341041601842898,0.011546532607650371,11.08799762829943,0.5787925640629377
52.0,20.555470546817475,0.6342405828305093,0.011537850536888534,11.087624681633226,0.5787934984118691
53.0,20.55871189065369,0.6343769241051286,0.011529174124177897,11.087251926346543,0.5787946047897733
54.0,20.561951362347074,0.6345131839967658,0.011520503318025963,11.086879362433459,0.5787957191297076
55.0,20.565188961861377,0.6346493624941653,0.011511838232963758,11.08650698989011,0.5787972552260056
56.0,20.568424689162022,0.6347854595861875,0.011503178637025154,11.086134808713453,0.5787988780406931
57.0,20.57165854421612,0.6349214752618152,0.011494524676835906,11.085762818900163,0.5788004787486023
58.0,20.574890526992434,0.6350574095101537,0.011485876457304594,11.085391020445824,0.5788020235949817
59.0,20.578120637461396,0.6351932623204236,0.01147723397635075,11.085019413345876,0.5788036120166148
60.0,20.581348875595115,0.6353290336819694,0.011468597072007506,11.084647997597871,0.578805252384974
61.0,20.58457524136736,0.635464723584252,0.011459965877521378,11.084276773197276,0.5788065279624699
62.0,20.587799734753567,0.6356003320168564,0.011451340378927434,11.083905740139128,0.5788062337190246
63.0,20.59102235573084,0.6357358589694836,0.011442720470849883,11.083534898418609,0.5788090492308151
64.0,20.59424310427794,0.635871304431958,0.011434106296332751,11.083164248030322,0.578811273743323
65.0,20.5974619803753,0.6360066683942179,0.011425497853480262,11.08279378896873,0.578813134496479
66.0,20.60067898400501,0.6361419508463251,0.011416895140382289,11.082423521228133,0.5788145746101672
67.0,20.60389411515082,0.6362771517784577,0.011408298155114804,11.082053444802693,0.5788156722341352
68.0,20.607107373798137,0.6364122711809154,0.011399706895740328,11.081683559686413,0.5788167573455655
69.0,20.610318759934042,0.6365473090441175,0.011391121360308511,11.08131386587315,0.5788178666802806
70.0,20.61352827354726,0.6366822653585985,0.011382541546856546,11.080944363356615,0.5788187638206586
71.0,20.61673591462819,0.6368171401150143,0.011373967453409429,11.080575052130358,0.5788191102603573
72.0,20.619941683168868,0.6369519333041375,0.01136539907798021,11.080205932187793,0.5788189535176432
73.0,20.623145579163015,0.6370866449168612,0.011356836418570222,11.079837003522176,0.5788186442114129
74.0,20.626347602605986,0.6372212749441952,0.011348279473168982,11.079468266126622,0.5788182692024345
75.0,20.6295477534948,0.637355823377269,0.011339728239754342,11.079099719994089,0.5788182344949423
76.0,20.63274603182814,0.6374902902073399,0.011331182707049066,11.078731365117477,0.5788189124119647
77.0,20.635942437606353,0.6376246754257817,0.01132264286894048,11.078363201489571,0.5788194627127256
78.0,20.639136970831448,0.637758979024095,0.011314108723536437,11.077995229103006,0.5788198850904523
79.0,20.64232963150709,0.637893200993896,0.011305580268953092,11.077627447950269,0.5788201212761993
80.0,20.645520419638636,0.6380273413269211,0.011297057503314488,11.077259858023693,0.5788201175730179
81.0,20.64870933523305,0.6381614000150249,0.011288540424752073,11.076892459315467,0.5788201116219507
82.0,20.651896378299014,0.6382953770501852,0.011280029031404192,11.07652525181763,0.5788199215865241
83.0,20.65508154884684,0.6384292724244921,0.011271523321415707,11.076158235522072,0.5788195774654816
84.0,20.658264846888514,0.6385630861301563,0.011263023292937342,11.075791410420532,0.5788199864833271
85.0,20.66144627243765,0.6386968181595086,0.01125452894412519,11.075424776504603,0.578820853708308
86.0,20.66462582550956,0.638830468505,0.011246040273140124,11.075058333765726,0.5788219427224706
87.0,20.667803506121185,0.6389640371591966,0.011237557278147207,11.074692082195199,0.5788232064732837
88.0,20.670979314291134,0.6390975241147819,0.011229079957314961,11.074326021784168,0.5788242058295393
89.0,20.674153250039673,0.6392309293645582,0.011220608308814849,11.07396015252363,0.5788250477935765
90.0,20.6773253133887,0.6393642529014522,0.011212142330820468,11.073594474404437,0.5788258879736856
91.0,20.6804955043618,0.6394974947184943,0.011203682021506848,11.073228987417291,0.5788266350036632
92.0,20.683663822984187,0.6396306548088472,0.011195227379049866,11.07286369155275,0.5788277512561636
93.0,20.68683026928273,0.6397637331657803,0.011186778401625297,11.072498586801217,0.5788288867455885
94.0,20.68999484328595,0.6398967297826862,0.011178335087408238,11.072133673152955,0.5788301798435007
95.0,20.693157545024018,0.6400296446530697,0.011169897434572227,11.071768950598075,0.578831424646533
96.0,20.69631837452875,0.6401624777705567,0.011161465441288534,11.071404419126544,0.5788328751790948
97.0,20.699477331833613,0.64029522912889,0.011153039105725262,11.071040078728181,0.5788319214031262
98.0,20.702634416973723,0.6404278987219264,0.011144618426046624,11.070675929392658,0.5788333877215167
99.0,20.70578962998582,0.6405604865436382,0.011136203400412246,11.070311971109499,0.5788340769201424
100.0,20.708942970908318,0.6406929925881176,0.01112779402697604,11.069948203868082,0.5788344314262692
101.0,20.712094439781264,0.6408254168495696,0.011119390303885621,11.06958462765764,0.5788347407585143
102.0,20.71524403664633,0.6409577593223178,0.011110992229281571,11.069221242467258,0.5788366345787581
103.0,20.718391761546847,0.6410900200008,0.011102599801296254,11.068858048285875,0.5788381655691632
104.0,20.721537614527954,0.6412221988796034,0.011094213017457964,11.06849504510227,0.5788392624135741
105.0,20.724681595643276,0.6413542959549513,0.01108583185123565,11.068132232904413,0.5788398748456448
106.0,20.72782370494116,0.6414863112216452,0.011077456325410693,11.067769611680797,0.5788399966794916
107.0,20.730963942471554,0.6416182446745978,0.011069086438062807,11.067407181419773,0.5788399450059959
108.0,20.734102308286065,0.6417500963088444,0.011060722186726437,11.067044942109545,0.5788400075964567
109.0,20.737238802437933,0.6418818661195336,0.011052363565862585,11.066682893738182,0.578839787813297
110.0,20.74037342498201,0.6420135541019224,0.011044010563658852,11.066321036293633,0.5788394931681337
111.0,20.743506175974794,0.6421451602513892,0.011035663178233384,11.065959369763707,0.5788392640807195
112.0,20.74663705547442,0.6422766845634231,0.01102732140770185,11.065597894136062,0.5788390569129794
113.0,20.749766063540648,0.6424081270336256,0.011018985250176683,11.06523660939821,0.5788391007219394
114.0,20.75289320023486,0.642539487657719,0.011010654703766299,11.064875515537524,0.5788383364609738
115.0,20.756018465620066,0.6426707664315285,0.01100232976657443,11.06451461254122,0.578839235839198
116.0,20.759141859760902,0.6428019633510021,0.0109940104366994,11.064153900396379,0.5788394920859633
117.0,20.762263382723646,0.6429330784121959,0.010985696712233196,11.063793379089926,0.578839681327003
118.0,20.76538303457618,0.6430641116112793,0.010977388591261088,11.06343304860865,0.5788398216890303
119.0,20.768500815388006,0.6431950629445407,0.010969086071860552,11.063072908939185,0.5788400472962906
120.0,20.771616725230267,0.6433259324083687,0.010960789152100744,11.062712960068032,0.578840230482891
121.0,20.774730764175708,0.6434567199992776,0.010952497830041829,11.062353201981537,0.5788402429014068
122.0,20.777842932298704,0.6435874257138858,0.010944212103734193,11.061993634665903,0.5788401222146652
123.0,20.780953229675237,0.6437180495489254,0.010935931971217887,11.061634258107192,0.5788400666600854
124.0,20.784061656382917,0.6438485915012443,0.010927657430521914,11.061275072291318,0.5788400068476837
125.0,20.78716821250096,0.6439790515677933,0.010919388479663596,11.060916077204052,0.5788399179494276
126.0,20.790272898110203,0.644109429745645,0.01091112511664794,11.060557272831018,0.5788405294596493
127.0,20.793375713293095,0.6442397260319767,0.010902867339467076,11.0601986591577,0.5788410453351881
128.0,20.79647665813368,0.644369940424079,0.010894615146099695,11.059840236169437,0.5788414328952561
129.0,20.799575732717646,0.6445000729193517,0.010886368534510336,11.05948200385142,0.5788415967969964
130.0,20.802672937132268,0.6446301235153086,0.010878127502649059,11.059123962188702,0.5788416134859423
131.0,20.80576827146642,0.6447600922095703,0.010869892048450732,11.05876611116619,0.5788415166691532
132.0,20.80886173581061,0.6448899789998728,0.010861662169834533,11.058408450768644,0.5788413645772829
133.0,20.811953330256934,0.6450197838840567,0.010853437864703566,11.058050980980688,0.5788410982532823
134.0,20.815043054899093,0.6451495068600769,0.0108452191309443,11.057693701786798,0.5788405963609279
135.0,20.818130909832398,0.6452791479259953,0.01083700596642609,11.057336613171309,0.5788399180744185
136.0,20.821216895153768,0.6454087070799828,0.010828798369000914,11.05697971511841,0.5788392756458988
137.0,20.824301010961698,0.6455381843203246,0.010820596336502643,11.056623007612153,0.5788385757207701
138.0,20.827383257356317,0.6456675796454127,0.010812399866747023,11.05626649063644,0.5788377775824773
139.0,20.830463634438438,0.64579689305352,0.010804208927638946,11.05591016417465,0.5788372892886451
140.0,20.833542142310964,0.6459261245431565,0.010796023527938936,11.055554028210143,0.5788367241137266
141.0,20.836618781082613,0.6460552741136013,0.01078784362499657,11.055198082725154,0.5788360589123601
142.0,20.839693550864936,0.6461843417644275,0.010779669241863386,11.05484232770226,0.5788354042114817
143.0,20.84276645176599,0.6463133274945642,0.010771500407056413,11.054486763124691,0.5788346910602961
144.0,20.845837483895394,0.6464422313030457,0.010763337114199904,11.054131388975579,0.5788339582977787
145.0,20.8489066473644,0.6465710531890171,0.01075517936116605,11.05377620523791,0.5788329109866533
146.0,20.851973942285827,0.6466997931517358,0.010747027145414374,11.053421211894541,0.5788325504293642
147.0,20.855039368774083,0.646828451190557,0.010738880464520909,11.0530664089282,0.5788320425535247
148.0,20.858102926945175,0.646957027304951,0.010730739316343788,11.052711796321464,0.5788312314721453
149.0,20.86116461691669,0.6470855214944918,0.010722603666192754,11.052357374056045,0.5788308180144572
150.0,20.86422443880781,0.6472139337588693,0.010714473513238365,11.05200314211354,0.5788307981777716
151.0,20.86728239273929,0.6473422640978684,0.010706348866087139,11.051649100475663,0.5788306797778708
152.0,20.87033847883348,0.6474705125113872,0.010698229741891628,11.05129524912445,0.5788307394475284
153.0,20.87339269721432,0.6475986789994314,0.010690116138496688,11.050941588041793,0.5788305074843847
154.0,20.876445048007312,0.6477267635621141,0.010682008053729368,11.050588117209443,0.5788298874097971
155.0,20.87949553133955,0.6478547661996522,0.01067390548493804,11.05023483660901,0.5788291078050156
156.0,20.882544147339722,0.647982686912372,0.01066580838767001,11.04988174622177,0.5788283827428664
157.0,20.885590896138076,0.6481105257007029,0.010657716802099836,11.049528846029055,0.5788275973735489
158.0,20.88863577786644,0.6482382825651835,0.010649630726015985,11.049176136012061,0.57882682099487
159.0,20.891678792658244,0.6483659575064568,0.010641550157188278,11.048823616151841,0.5788259698628455
160.0,20.89471994064846,0.6484935505252768,0.010633475093367543,11.048471286429315,0.5788255508823434
161.0,20.897759221973672,0.6486210616224938,0.010625405532284918,11.048119146825256,0.5788249884428487
162.0,20.90079663677201,0.6487484907990722,0.010617341471651815,11.047767197320303,0.5788247205144559
163.0,20.903832185183187,0.648875838056081,0.010609282909159566,11.047415437894955,0.5788236883203183
164.0,20.906865867348504,0.6490031033946907,0.01060122984247916,11.047063868529571,0.5788239074129622
165.0,20.909897683410815,0.6491302868161798,0.010593182247722448,11.04671248920427,0.5788237881472944
166.0,20.91292763351455,0.6492573883219335,0.010585140120173697,11.046361299899019,0.5788235274102865
167.0,20.915955717805723,0.6493844079134393,0.010577103478462222,11.046010300593691,0.5788231492348795
168.0,20.91898193643189,0.6495113455922944,0.010569072277210729,11.04565949126628,0.5788227508411846
169.0,20.92200628954221,0.6496382013601941,0.010561046554869462,11.04530887189645,0.5788225073596592
170.0,20.92502877728739,0.6497649752189438,0.010553026306677746,11.044958442463729,0.5788223010378851
171.0,20.9280493998197,0.6498916671704541,0.010545011530253529,11.044608202947504,0.578821921428032
172.0,20.931068157292984,0.6500182772167395,0.010537002223199105,11.044258153327027,0.578821509986119
173.0,20.934085049862652,0.650144805359913,0.01052899838267248,11.043908293581401,0.5788210290741908
174.0,20.937100077685685,0.6502712516022028,0.010521000005596344,11.043558623689574,0.5788201921093179
175.0,20.940113240920617,0.6503976159459338,0.010513007089537806,11.04320914363036,0.5788197190718375
176.0,20.943124539726618,0.6505238983934292,0.01050501957479841,11.04285985338028,0.5788204831218218
177.0,20.946133974264143,0.6506500989470861,0.010497037434206465,11.04251075291508,0.5788208750304116
178.0,20.949141544696438,0.6507762176095291,0.010489060733001786,11.042161842213098,0.5788211840102567
179.0,20.952147251188308,0.6509022543835036,0.010481089444725217,11.041813121252611,0.5788214490922479
180.0,20.95515109390614,0.6510282092718537,0.010473123578011933,11.041464590011715,0.5788221591560524
181.0,20.95815307301788,0.6511540822775296,0.01046516313962814,11.041116248468331,0.5788226533670645
182.0,20.961153188693057,0.6512798734035895,0.010457208127392502,11.040768096600253,0.5788231199793515
183.0,20.964151441102764,0.6514055826531995,0.010449258539136733,11.040420134385139,0.5788238795026698
184.0,20.96714783042013,0.6515312100296887,0.010441314369119334,11.04007236180043,0.5788251707595525
185.0,20.970142356826432,0.6516567555373501,0.010433375565069606,11.0397247788222,0.5788258416004176
186.0,20.97313502049747,0.6517822191796673,0.010425442178407518,11.039377385427716,0.5788252062673608
187.0,20.976125821610584,0.6519076009602179,0.01041751420431188,11.03903018159413,0.5788243675870722
188.0,20.979114760344686,0.6520329008826895,0.010409591627262446,11.038683167298071,0.5788223186517966
189.0,20.982101836880243,0.6521581189508768,0.010401674446760498,11.038336342516088,0.5788210584762001
190.0,20.98508705139929,0.6522832551686732,0.010393762673152486,11.037989707224952,0.5788207107785521
191.0,20.988070404085406,0.6524083095400804,0.010385856304516156,11.03764326140131,0.5788198548969549
192.0,20.991051895123736,0.6525332820692049,0.010377955338937733,11.037297005021678,0.578818872860249
193.0,20.994031524700965,0.6526581727602544,0.01037005977451094,11.036950938062438,0.5788173258516003
194.0,20.99700929300536,0.6527829816175427,0.010362169609335645,11.036605060499843,0.5788179285238488
