k,PSNR,SSIM,mse,Log-Gradient,Angle
0.0,20.423511145806437,0.5169423069374662,0.0,10.967059742438854,0.5964031915747728
1.0,20.426614641963788,0.5170891007345233,0.010148908554468275,10.966657714605937,0.5975212827574226
2.0,20.430250692670523,0.5172634444562411,0.012046773410837085,10.966191268799315,0.5975264058949029
3.0,20.43391053391086,0.5174390995967406,0.01215869534660815,10.965721961732067,0.5975384591329688
4.0,20.437572163700516,0.5176148689934066,0.012167539541797407,10.965252406370057,0.597549555208704
5.0,20.441233861661942,0.5177906579933484,0.012165788703771288,10.964782817345702,0.5975554807048654
6.0,20.444895396480867,0.517966453831348,0.012162203484015241,10.964313226160805,0.597564649413922
7.0,20.44855671779083,0.5181422537700774,0.012158130084738398,10.963843640387053,0.5975740088077929
8.0,20.452217809108767,0.5183180568247336,0.01215385303081989,10.963374063030074,0.5975825234893839
9.0,20.455878664526598,0.5184938626011307,0.012149462063680177,10.962904495731152,0.5975907606089544
10.0,20.459539281757078,0.5186696709491324,0.012145017134390038,10.96243493920911,0.5975990206232198
11.0,20.463199659276757,0.5188454817436573,0.012140546314725517,10.961965393867832,0.5976071703543644
12.0,20.466859795981875,0.5190212948878914,0.012136053287724794,10.961495860073484,0.5976152726505404
13.0,20.470519690785878,0.5191971102879832,0.012131551750863157,10.961026338025073,0.5976234551928261
14.0,20.47417934275765,0.5193729278640665,0.012127042693194314,10.960556827882868,0.5976315813314204
15.0,20.47783875120504,0.5195487475455863,0.012122526752471779,10.960087329783775,0.5976397042492086
16.0,20.48149791542211,0.5197245692632962,0.012118007264574902,10.95961784384102,0.597647874379259
17.0,20.48515683474498,0.519900392948993,0.01211348590755286,10.959148370159514,0.5976560207661442
18.0,20.488815508512893,0.52007621853526,0.012108962308306173,10.958678908824986,0.5976640617282692
19.0,20.492473936057465,0.520252045955485,0.012104439219066844,10.958209459911593,0.597672126356542
20.0,20.49613211671831,0.5204278751413904,0.012099916639611862,10.957740023504298,0.5976801923768721
21.0,20.499790049766236,0.5206037060162735,0.012095393066292679,10.957270599691128,0.5976881990534662
22.0,20.503447734559224,0.5207795385139485,0.012090869584815254,10.95680118855545,0.5976962163108678
23.0,20.5071051704566,0.5209553725683557,0.012086346815119048,10.956331790175955,0.5977042244887597
24.0,20.51076235681855,0.5211312081135174,0.01208182478675097,10.955862404630553,0.5977121829717741
25.0,20.514419293005833,0.5213070450835174,0.012077303472849615,10.955393031996849,0.5977201060108521
26.0,20.51807597837955,0.5214828834124757,0.012072782883240134,10.954923672351937,0.5977279675531633
27.0,20.521732412300956,0.5216587230345346,0.012068263064505575,10.954454325772353,0.5977359473229126
28.0,20.525388594131343,0.521834563883842,0.012063744026878908,10.95398499233438,0.5977440341045777
29.0,20.52904452323194,0.5220104058945542,0.012059225778178364,10.953515672114108,0.5977520619163766
30.0,20.532700198963802,0.5221862490008156,0.01205470832432771,10.953046365187483,0.5977600702686293
31.0,20.53635562068779,0.5223620931367621,0.012050191656793078,10.952577071630266,0.5977680878491011
32.0,20.540010787764512,0.522537938236515,0.012045675640218054,10.952107791511875,0.5977761332446158
33.0,20.543665699554268,0.5227137842341733,0.012041160105275749,10.951638524905182,0.5977840917318701
34.0,20.547320355417042,0.5228896310638218,0.012036645189510699,10.951169271889293,0.5977920573562959
35.0,20.55097475471247,0.5230654786595146,0.012032131030681778,10.950700032539846,0.597800025974332
36.0,20.55462889679984,0.5232413269552839,0.012027617562775313,10.950230806932316,0.5978078995207416
37.0,20.558282781038027,0.5234171758851408,0.012023104500392654,10.949761595141577,0.5978157782996704
38.0,20.561936406785524,0.5235930253830614,0.012018592093280803,10.949292397244657,0.5978237132409732
39.0,20.565589773400433,0.5237688753830014,0.01201407998516926,10.948823213321658,0.5978316943200753
40.0,20.56924288024043,0.5239447258188817,0.012009568440026468,10.94835404344905,0.597839641499374
41.0,20.5728957266628,0.5241205766246014,0.012005057645304266,10.94788488770242,0.5978475391081064
42.0,20.576548312024396,0.5242964277340234,0.012000547601344766,10.947415746157379,0.5978554186832499
43.0,20.58020063568162,0.5244722790809865,0.011996038308353843,10.946946618889575,0.5978633266630956
44.0,20.58385269699049,0.5246481305992942,0.01199152976642085,10.946477505974688,0.5978711725205997
45.0,20.587504495306547,0.524823982222728,0.011987021975535713,10.94600840748844,0.5978789550626241
46.0,20.591156029984923,0.5249998338850334,0.01198251493560334,10.945539323506585,0.5978866065988169
47.0,20.594807300380296,0.5251756855199219,0.011978008532924975,10.945070254105316,0.5978940277896179
48.0,20.598458305858323,0.5253515370626625,0.011973502557337567,10.94460119936048,0.5979012945093286
49.0,20.602109045780796,0.5255273884480028,0.011968997163790426,10.944132159347731,0.5979086217930012
50.0,20.605759519501035,0.525703239609557,0.011964492352622966,10.943663134143208,0.597916123307831
51.0,20.609409726371922,0.5258790904809061,0.011959988202546843,10.943194123822957,0.5979236822791228
52.0,20.61305966574588,0.5260549409956018,0.011955484795879611,10.942725128462937,0.5979314142218916
53.0,20.6167093369749,0.5262307910871628,0.011950982132833427,10.942256148139155,0.5979393982114726
54.0,20.62035873941052,0.5264066406890775,0.011946480119267817,10.941787182927508,0.5979475661681845
55.0,20.62400787240382,0.5265824897348063,0.011941978698688181,10.94131823290384,0.597955991933897
56.0,20.62765673530545,0.526758338157776,0.011937478025645694,10.940849298144286,0.5979645964747428
57.0,20.631305327465604,0.5269341858913833,0.01193297810043768,10.940380378725024,0.5979733851995744
58.0,20.63495364823401,0.5271100328689992,0.011928478923342504,10.939911474722283,0.597981963619948
59.0,20.63860169695998,0.5272858790239531,0.011923980494621435,10.939442586212335,0.5979904303556721
60.0,20.642249472992354,0.5274617242895573,0.011919482814520054,10.938973713271501,0.5979986212781931
61.0,20.645896975679527,0.5276375685990845,0.011914985883269589,10.938504855976152,0.5980066757283666
62.0,20.649544204369445,0.5278134118857816,0.011910489644322023,10.938036014402863,0.5980146888489758
63.0,20.653191158409612,0.5279892540828633,0.011905994042278479,10.937567188628398,0.598022611756064
64.0,20.65683783714708,0.5281650951235144,0.011901499192148467,10.937098378729246,0.5980305793235153
65.0,20.660484239928447,0.528340934940892,0.011897005094207292,10.936629584781942,0.5980385928020772
66.0,20.664130366099883,0.5285167734681208,0.011892511748715749,10.936160806863066,0.5980465511669057
67.0,20.66777621500707,0.5286926106382949,0.011888019155920476,10.935692045049253,0.5980544249529884
68.0,20.67142178599528,0.5288684463844829,0.011883527316054396,10.93522329941718,0.5980623665783653
69.0,20.67506707840932,0.5290442806397206,0.011879036229337104,10.934754570043573,0.5980702681481337
70.0,20.678712091593553,0.5292201133370135,0.011874545895975148,10.934285857005209,0.5980782146862703
71.0,20.68235682489189,0.5293959444093389,0.011870056316162472,10.933817160378911,0.5980860297585975
72.0,20.686001277647815,0.5295717737896487,0.011865567490080414,10.933348480241552,0.5980937571625821
73.0,20.68964544920432,0.5297476014108564,0.011861079417898135,10.932879816670052,0.5981014324847789
74.0,20.693289338904,0.5299234272058545,0.011856592099772627,10.932411169741378,0.5981083397805224
75.0,20.69693294608897,0.530099251107503,0.011852105535848973,10.931942539532546,0.5981135060490711
76.0,20.70057627010093,0.5302750730486355,0.0118476197262603,10.931473926120622,0.5981209147747578
77.0,20.704219310281093,0.530450892962051,0.011843134671128028,10.93100532958272,0.5981289681721974
78.0,20.707862065970257,0.530626710780525,0.011838650370561865,10.930536749995996,0.5981384168207178
79.0,20.711504536508766,0.5308025264368036,0.011834166824659879,10.930068187437662,0.598147067120816
80.0,20.71514672123652,0.5309783398636024,0.011829684029311331,10.929599641984835,0.5981551440950005
81.0,20.718788619492972,0.531154150993609,0.011825201936398369,10.929131113713089,0.5981629655151322
82.0,20.722430230617114,0.5313299597594865,0.011820720596503291,10.928662602699779,0.5981707765092624
83.0,20.72607155394753,0.5315057660938601,0.011816240009725084,10.92819410902231,0.5981785546276203
84.0,20.72971258882232,0.5316815699293389,0.011811760176152524,10.927725632758131,0.5981863757234106
85.0,20.73335333457917,0.5318573711984967,0.011807281095864078,10.927257173984742,0.5981942716087861
86.0,20.736993790555303,0.5320331698338768,0.011802802768928084,10.92678873277969,0.5982019241789462
87.0,20.740633956087514,0.5322089657680035,0.011798325195402692,10.926320309220568,0.5982093118966174
88.0,20.74427383051214,0.5323847589333647,0.011793848375335871,10.925851903385022,0.5982163060423039
89.0,20.74791341316509,0.532560549262428,0.011789372308765415,10.925383515350738,0.5982227899026696
90.0,20.751552703381822,0.532736336687623,0.011784896946863127,10.924915145194184,0.5982294955549317
91.0,20.755191700497356,0.5329121211413641,0.011780422320312924,10.924446792992688,0.5982366164366514
92.0,20.758830403846265,0.5330879025560309,0.011775948446654163,10.92397845882409,0.5982446297994802
93.0,20.762468812762688,0.5332636808639749,0.011771475325930144,10.923510142766276,0.5982525190065137
94.0,20.76610692658031,0.533439455997527,0.011767002908215751,10.923041844896963,0.5982602642271168
95.0,20.769744744632398,0.5336152278889835,0.011762531168467387,10.922573565293497,0.5982681455430288
96.0,20.773382266251758,0.5337909964706191,0.011758060182526045,10.922105304033895,0.5982759086158485
97.0,20.77701949077077,0.5339667616746783,0.011753589950447705,10.921637061196225,0.598283556244889
98.0,20.780656417521364,0.5341425234333793,0.011749120472277412,10.921168836858605,0.5982912038201238
99.0,20.784293045835035,0.5343182816789165,0.01174465174804911,10.9207006310992,0.5982987556609293
100.0,20.787929375042857,0.5344940363434519,0.01174018377778566,10.920232443996218,0.5983063653219624
101.0,20.791565404475428,0.5346697873591327,0.011735716561499084,10.919764275627921,0.5983138557358031
102.0,20.795201133462946,0.534845534658062,0.011731250099190425,10.919296126072616,0.5983214110345539
103.0,20.79883656133515,0.5350212781723337,0.011726784381140566,10.91882799540827,0.5983290902501146
104.0,20.802471687421345,0.5351970178340043,0.01172231937341043,10.918359883711542,0.598336506733346
105.0,20.806106511050405,0.5353727535751079,0.011717855119326518,10.917891791060878,0.5983436129392851
106.0,20.809741031550764,0.5355484853276561,0.011713391618869263,10.91742371753477,0.598350069157341
107.0,20.81337524825041,0.535724213023628,0.011708928872007937,10.91695566321176,0.5983559285293765
108.0,20.817009160476903,0.5358999365949823,0.01170446687870094,10.916487628170438,0.5983618613124454
109.0,20.820642767557374,0.5360756559736507,0.01170000563653655,10.916019612489428,0.5983697247783382
110.0,20.824276068818513,0.5362513710915376,0.011695545144441238,10.915551616247399,0.5983791077194064
111.0,20.82790906358658,0.536427081880524,0.011691085402405134,10.915083639523068,0.5983882072145104
112.0,20.831541751187387,0.5366027882724629,0.011686626410411417,10.9146156823952,0.5983967414520347
113.0,20.83517413094633,0.5367784901991897,0.011682168168436523,10.9141477449426,0.5984048828827484
114.0,20.838806202188366,0.536954187592501,0.01167771067645011,10.91367982724413,0.5984131895053434
115.0,20.842437964238016,0.5371298803841815,0.011673253934415278,10.913211929378686,0.5984216843365512
116.0,20.846069416419365,0.5373055685059879,0.011668797942288327,10.912744051425225,0.5984303140773631
117.0,20.84970055805607,0.5374812518896452,0.011664342700019223,10.91227619346274,0.5984389302134984
118.0,20.853331388471364,0.5376569304668594,0.011659888207551284,10.911808355570273,0.5984474300257571
119.0,20.85696190698804,0.5378326041693148,0.011655434428822211,10.911340537826545,0.5984558893502946
120.0,20.860592112928455,0.5380082729286647,0.011650981391474188,10.910872740310605,0.5984643580305692
121.0,20.864222005614547,0.5381839366765426,0.011646529103758555,10.910404963101632,0.5984725872579394
122.0,20.867851584367823,0.5383595953445526,0.011642077565605908,10.909937206278851,0.5984807082965931
123.0,20.871480848509343,0.5385352488642843,0.011637626776940507,10.909469469921534,0.5984885985530083
124.0,20.87510979735976,0.538710897167292,0.011633176737680294,10.909001754108996,0.5984963080312639
125.0,20.878738430239295,0.5388865401851156,0.011628727447736879,10.908534058920603,0.5985037780994454
126.0,20.882366746467717,0.5390621778492616,0.011624278907015784,10.908066384435767,0.5985109265000615
127.0,20.885994745364393,0.539237810091222,0.011619831115416345,10.907598730733937,0.5985178662622644
128.0,20.889622426248255,0.5394134368424622,0.011615384072831981,10.907131097894622,0.5985250471302305
129.0,20.893249788437807,0.5395890580344199,0.011610937779150128,10.906663485997365,0.5985322641200826
130.0,20.89687683125112,0.5397646735985169,0.011606492234252476,10.90619589512176,0.5985392399912252
131.0,20.900503554005855,0.539940283466143,0.011602047438014946,10.905728325347447,0.5985462760494
132.0,20.90412995601923,0.5401158875686733,0.011597603377310957,10.90526077675343,0.5985533760981362
133.0,20.907756036608035,0.540291485837455,0.011593160043929752,10.904793249418473,0.5985603684862357
134.0,20.911381795088644,0.540467078203811,0.011588717454509883,10.90432574342236,0.5985672140902761
135.0,20.91500723077701,0.5406426645990475,0.01158427560894904,10.903858258844918,0.5985739922825831
136.0,20.918632342988644,0.5408182449544446,0.011579834507142804,10.903390795766024,0.5985807718423917
137.0,20.92225713103864,0.5409938192012569,0.011575394148984583,10.902923354265592,0.5985875053463058
138.0,20.925881594241673,0.5411693872707196,0.011570954534365747,10.902455934423589,0.5985942004016701
139.0,20.929505731912002,0.5413449490940483,0.011566515663175785,10.901988536320026,0.5986008191396839
140.0,20.93312954336345,0.5415205046024273,0.011562077535302197,10.901521160034957,0.5986073892615692
141.0,20.93675302790942,0.5416960537270316,0.011557640150630592,10.901053805648482,0.598613831911227
142.0,20.9403761848629,0.5418715963990027,0.011553203504831256,10.900586473240645,0.5986208139188826
143.0,20.943999013536448,0.5420471325494671,0.011548767562233582,10.900119162890261,0.5986279507333968
144.0,20.94762151324222,0.5422226621095255,0.011544332357862752,10.899651874677552,0.5986352497882382
145.0,20.951243683291917,0.5423981850102598,0.011539897891646677,10.899184608682786,0.5986424171775618
146.0,20.95486552299686,0.5425737011827289,0.011535464163514845,10.898717364986274,0.5986495374940476
147.0,20.958487031667925,0.5427492105579688,0.011531031173398489,10.898250143668369,0.5986565396347446
148.0,20.962108208615568,0.5429247130669985,0.011526598885228487,10.897782944807979,0.59866335504319
149.0,20.965729053149843,0.5431002086408142,0.011522167331917027,10.897315768485457,0.598670557750906
150.0,20.969349564580373,0.5432756972103863,0.011517736515815858,10.896848614781305,0.5986777043940411
151.0,20.97296974221637,0.5434511787066701,0.011513306416921302,10.896381483774329,0.5986847939701295
152.0,20.976589585366618,0.5436266530605995,0.011508877019811264,10.895914375542624,0.598691910733563
153.0,20.980209093339496,0.5438021202030812,0.011504448337680879,10.895447290165652,0.5986989608988346
154.0,20.98382826544295,0.5439775800650105,0.01150002039182178,10.894980227724131,0.5987058379711063
155.0,20.987447100984514,0.5441530325772564,0.011495593182282954,10.894513188298827,0.5987126080575296
156.0,20.991065599271327,0.5443284776706668,0.011491166683219565,10.894046171970416,0.5987194247125744
157.0,20.994683759610083,0.5445039152760757,0.011486740908815933,10.893579178819696,0.5987260313042916
158.0,20.998301581307096,0.544679345324289,0.011482315836097741,10.893112208926903,0.5987324806341264
159.0,21.00191906366824,0.5448547677461,0.011477891493419337,10.892645262372884,0.598739505922017
160.0,21.005536205998986,0.5450301824722729,0.011473467884999684,10.892178339238608,0.5987469745006723
161.0,21.009153007604397,0.5452055894335618,0.011469045010974325,10.891711439605093,0.5987544396809465
162.0,21.01276946778912,0.5453809885606934,0.01146462287148159,10.891244563553402,0.5987619340605989
163.0,21.016385585857392,0.5455563797843815,0.011460201466662356,10.890777711164642,0.5987692863087858
164.0,21.02000136111304,0.5457317630353166,0.011455780796659954,10.890310882519966,0.5987764426095236
165.0,21.02361679285947,0.5459071382441699,0.011451360861620102,10.889844077700575,0.5987839188729752
166.0,21.027231880399707,0.5460825053415932,0.011446941661690727,10.889377296787712,0.5987915155858777
167.0,21.030846623036332,0.5462578642582215,0.011442523177452552,10.888910539862156,0.5987989854104451
168.0,21.03446102007154,0.5464332149246706,0.011438105426333552,10.888443807005183,0.5988060265268252
169.0,21.03807507080711,0.546608557271531,0.011433688410801621,10.887977098298174,0.5988141170919966
170.0,21.041688774544408,0.5467838912293849,0.011429272131027585,10.88751041382256,0.598822337793115
171.0,21.045302130584407,0.5469592167287894,0.0114248565871834,10.887043753659812,0.5988293395574931
172.0,21.048915138227663,0.547134533700283,0.011420441779441938,10.886577117891452,0.5988355085159446
173.0,21.052527796774335,0.5473098420743888,0.01141602770303539,10.886110506598804,0.5988422165168615
174.0,21.056140105524157,0.5474851417816108,0.011411614346767962,10.885643919862698,0.598849830239807
175.0,21.059752063776497,0.5476604327524338,0.011407201726749113,10.885177357764789,0.5988571998676325
176.0,21.06336367083026,0.5478357149173233,0.011402789843170006,10.884710820386783,0.5988644161730026
177.0,21.066974925984013,0.5480109882067316,0.01139837869622191,10.884244307810429,0.5988718616998131
178.0,21.070585828535876,0.5481862525510888,0.0113939682860961,10.883777820117519,0.5988795187263044
179.0,21.074196377783572,0.5483615078808086,0.011389558612983668,10.883311357389895,0.5988865962631926
180.0,21.07780657302445,0.5485367541262912,0.011385149677075268,10.882844919709443,0.598893542734688
181.0,21.081416413555417,0.5487119912179114,0.011380741462326233,10.88237850715814,0.5989018216132784
182.0,21.085025898673017,0.5488872190860368,0.011376333973310043,10.881912119817995,0.5989097528867504
183.0,21.088635027673376,0.5490624376610082,0.011371927222436197,10.881445757771026,0.5989167060914401
184.0,21.092243799852216,0.5492376468731536,0.011367521209913712,10.880979421099298,0.5989229779815959
185.0,21.095852214504873,0.5494128466527873,0.011363115935950033,10.880513109884921,0.5989289262105643
186.0,21.09946027092629,0.5495880369302018,0.011358711400750805,10.880046824210051,0.5989346868446378
187.0,21.10306796841098,0.5497632176356744,0.011354307604519656,10.879580564156887,0.5989409087809466
188.0,21.106675306253095,0.5499383886994716,0.01134990454745803,10.879114329807678,0.5989486795766069
189.0,21.11028228374638,0.5501135500518325,0.011345502229765003,10.87864812124471,0.5989561666010089
190.0,21.113888900184165,0.5502887016229895,0.011341100651637147,10.878181938550323,0.5989632895170072
191.0,21.11749515485942,0.550463843343157,0.011336699813268255,10.877715781806897,0.598970081961002
192.0,21.1211010470647,0.5506389751425287,0.011332299714849295,10.877249651096859,0.5989769040716333
193.0,21.12470657609215,0.5508140969512886,0.01132790035656828,10.876783546502681,0.5989835407182219
194.0,21.128311741233553,0.550989208699602,0.011323501738609921,10.87631746810688,0.5989902124353528
