k,PSNR,SSIM,mse,Log-Gradient,Angle
0.0,20.423511145806437,0.5169423069374662,0.0,10.967059742438854,0.5964031915747728
1.0,20.426614287380648,0.51708908396232,0.010147749142969472,10.966657760540821,0.5975212818395055
2.0,20.430249568042754,0.5172633909873318,0.012044253286183243,10.96619141397519,0.5975264046482811
3.0,20.433908221013137,0.5174389893508605,0.012154791876914626,10.965722259795752,0.5975384531338522
4.0,20.437568244079834,0.5176146818725927,0.012162248979194712,10.96525291100732,0.5975495470797939
5.0,20.441227916831828,0.5177903738926652,0.012159111183330804,10.964783582256851,0.597555466628423
6.0,20.444887007947543,0.5179660526403413,0.012154139895167452,10.964314305057066,0.5975646341594266
7.0,20.448545467059255,0.5181417153731314,0.012148681498584227,10.963845086989634,0.5975739854274721
8.0,20.452203277684863,0.5183173611012203,0.012143020576414029,10.963375931069773,0.5975824924175168
9.0,20.455860433918463,0.5184929894254937,0.012137246892999587,10.962906838948097,0.5975907217560641
10.0,20.459516933475573,0.5186686001909486,0.01213142041743015,10.962437811352613,0.5975989729288316
11.0,20.463172774836103,0.518844193267686,0.012125569230457184,10.961968848696307,0.5976071128859476
12.0,20.46682795690023,0.5190197685541347,0.012119697018181263,10.961499951354352,0.5976152033468755
13.0,20.470482478585783,0.5191953259517277,0.012113817483470422,10.961031119534685,0.5976233742863426
14.0,20.474136338966645,0.5193708653759366,0.012107931616284446,10.96056235340644,0.5976314876651241
15.0,20.477789537356138,0.5195463867515886,0.012102040053260373,10.960093653115326,0.5976395964874558
16.0,20.481442073054225,0.5197218900048721,0.012096146133522289,10.959625018783319,0.5976477535728192
17.0,20.485093945403467,0.5198973750630664,0.012090251534417677,10.95915645052402,0.597655885549034
18.0,20.488745153750017,0.520072841854274,0.012084355883589963,10.958687948431791,0.5976639099489669
19.0,20.492395697432883,0.5202482903074626,0.012078461934646114,10.958219512589373,0.5976719567587492
20.0,20.49604557579949,0.5204237203499693,0.01207256968699399,10.957751143090261,0.5976800045924812
21.0,20.499694788129048,0.5205991319007649,0.012066677635910097,10.957282840030953,0.5976879935266123
22.0,20.50334333378842,0.5207745248893835,0.012060786868301455,10.95681460350323,0.5976959884840026
23.0,20.506991212146225,0.5209498992455269,0.012054898004075785,10.956346433594147,0.5977039768734439
24.0,20.51063842257249,0.52112525489903,0.01204901107259273,10.955878330389929,0.597711914660655
25.0,20.514284964438254,0.521300591779838,0.012043126046484226,10.955410293976433,0.5977198169673685
26.0,20.517930837115394,0.5214759098179734,0.012037242935324865,10.95494232443896,0.5977276571810523
27.0,20.52157603997646,0.5216512089435337,0.012031361785819919,10.954474421862198,0.5977356075736673
28.0,20.525220572394467,0.5218264890866694,0.012025482608002446,10.954006586330522,0.5977436664059824
29.0,20.528864433742896,0.522001750177585,0.012019605409489157,10.953538817928067,0.5977516707633309
30.0,20.53250762339552,0.5221769921465218,0.01201373019600094,10.95307111673877,0.5977596493307261
31.0,20.536150140726413,0.5223522149237582,0.012007856958904157,10.952603482846326,0.5977676383414315
32.0,20.539791985109872,0.5225274184396073,0.012001985561303625,10.952135916328057,0.5977756549800267
33.0,20.54343315592039,0.522702602624408,0.011996115833795598,10.951668417264642,0.5977835881375096
34.0,20.547073652532617,0.522877767408529,0.01199024791418343,10.951200985742966,0.5977915167984449
35.0,20.550713474321363,0.5230529127223605,0.01198438194054825,10.950733621846382,0.5977994590601574
36.0,20.55435262066154,0.5232280384963185,0.01197851784501124,10.950266325658035,0.5978073029457744
37.0,20.557991090928184,0.523403144660841,0.011972655344477248,10.94979909726041,0.5978151419598778
38.0,20.561628884496415,0.5235782311463845,0.011966794686250214,10.949331936738114,0.5978230429564776
39.0,20.56526600074145,0.5237532978834283,0.011960935513558656,10.948864844178745,0.5978309835450787
40.0,20.568902439038595,0.52392834480247,0.011955078093293787,10.948397819666214,0.5978389002315591
41.0,20.572538198763226,0.5241033718340239,0.011949222611270034,10.947930863283503,0.5978467653955634
42.0,20.576173279290792,0.5242783789086288,0.011943369067623794,10.947463975113564,0.5978546032682251
43.0,20.579807679996804,0.5244533659568348,0.011937517462355312,10.94699715523933,0.5978624695445697
44.0,20.58344140025685,0.5246283329092204,0.011931667795348511,10.946530403743719,0.5978702855728496
45.0,20.587074439446553,0.5248032796963721,0.011925820066387904,10.946063720709619,0.5978780344467424
46.0,20.590706796941625,0.524978206248898,0.011919974275173165,10.945597106219916,0.5978856677853507
47.0,20.59433847211782,0.5251531124974252,0.011914130306983978,10.945130560357864,0.5978930799519777
48.0,20.597969464362432,0.5253279983741862,0.011908287950057064,10.944664083206328,0.5979003109076751
49.0,20.601599773059238,0.525502863810927,0.011902447362441363,10.944197674847915,0.5979075842940279
50.0,20.605229397584125,0.5256777087383173,0.011896608540343936,10.94373133536567,0.5979150222424563
51.0,20.60885833731302,0.5258525330870376,0.011890771567133128,10.943265064842487,0.597922524762011
52.0,20.61248659162191,0.5260273367877945,0.01188493652289287,10.942798863361118,0.5979301756198149
53.0,20.616114159886834,0.526202119771305,0.011879103407631658,10.942332731004301,0.597938070917135
54.0,20.619741041483888,0.526376881968306,0.011873272120537777,10.941866667854608,0.5979461462764344
55.0,20.623367235789196,0.5265516233095552,0.01186744261682341,10.94140067399452,0.5979544951252388
56.0,20.626992742178977,0.5267263437258226,0.01186161504539621,10.940934749506741,0.5979629601198014
57.0,20.630617560029453,0.5269010431479004,0.011855789406350369,10.940468894473964,0.5979717298875266
58.0,20.634241688716944,0.5270757215065993,0.011849965699761399,10.94000310897888,0.5979802659037787
59.0,20.637865127617797,0.5272503787327473,0.011844143925687988,10.939537393104162,0.5979887260370574
60.0,20.641487876108414,0.5274250147571863,0.011838324084173367,10.93907174693248,0.5979969130840882
61.0,20.645109933565262,0.5275996295107852,0.011832506175246697,10.938606170546496,0.5980049274360664
62.0,20.648731299364854,0.5277742229244246,0.011826690135877114,10.938140664029039,0.5980128972486968
63.0,20.65235197288377,0.5279487949290064,0.011820875922143459,10.937675227463039,0.5980207721752308
64.0,20.655971953498636,0.5281233454554519,0.011815063643460529,10.937209860931109,0.5980286569460435
65.0,20.65959124058614,0.5282978744346974,0.01180925329990278,10.936744564515848,0.5980366193680597
66.0,20.663209833523023,0.528472381797706,0.011803444891530492,10.936279338299853,0.5980445216725804
67.0,20.66682773168609,0.5286468674754511,0.01179763841839007,10.93581418236571,0.5980523386424316
68.0,20.670444934452206,0.5288213313989324,0.011791833880514477,10.935349096795997,0.5980602169070393
69.0,20.67406144119829,0.5289957734991629,0.011786031277923638,10.934884081673282,0.598068042722341
70.0,20.677677251301326,0.5291701937071805,0.011780230610624758,10.934419137080129,0.5980759372434219
71.0,20.681292364138354,0.5293445919540406,0.011774431878612646,10.93395426309909,0.5980837255257396
72.0,20.684906779086486,0.529518968170816,0.011768635081869941,10.933489459812705,0.5980914073188975
73.0,20.688520495522877,0.5296933222886052,0.011762840220367294,10.933024727303517,0.5980990532346925
74.0,20.692133512824782,0.5298676542385203,0.011757047294063554,10.932560065654048,0.5981063002167576
75.0,20.69574583036948,0.5300419639516991,0.011751256302905883,10.93209547494682,0.5981118844875292
76.0,20.699357447534336,0.5302162513592951,0.01174546724682992,10.931630955264339,0.5981181069556836
77.0,20.70296836369679,0.5303905163924845,0.011739680125759783,10.931166506689108,0.5981259827827455
78.0,20.706578578234325,0.5305647589824669,0.01173389493960832,10.930702129303617,0.598135111481106
79.0,20.710188090524504,0.5307389790604534,0.011728111688276938,10.930237823190348,0.598143968041276
80.0,20.71379689994497,0.5309131765576885,0.011722330370826768,10.929773588431749,0.5981521567478606
81.0,20.717405005873417,0.5310873514054254,0.011716550931594256,10.929309425108443,0.5981599497580444
82.0,20.721012407687603,0.5312615035349487,0.011710773424945899,10.928845333302888,0.5981676934699066
83.0,20.724619104765388,0.5314356328775562,0.011704997850785836,10.928381313097534,0.5981754102281241
84.0,20.728225096484664,0.5316097393645741,0.011699224209008227,10.927917364574814,0.5981831267520873
85.0,20.731830382223425,0.5317838229273425,0.011693452499497351,10.927453487817157,0.5981909289507081
86.0,20.73543496135973,0.5319578834972299,0.011687682722127625,10.926989682906983,0.598198627765774
87.0,20.73903883327171,0.5321319210056209,0.011681914876763667,10.926525949926699,0.5982060522642098
88.0,20.74264199733757,0.5323059353839287,0.011676148963260163,10.926062288958702,0.5982131801150051
89.0,20.746244452935592,0.5324799265635815,0.01167038498146202,10.925598700085382,0.5982197848607758
90.0,20.749846199444146,0.5326538944760325,0.011664622886596686,10.925135183387965,0.5982262992612172
91.0,20.753447236241662,0.5328278390527573,0.01165886270012231,10.924671738948245,0.598233034299977
92.0,20.757047562706653,0.5330017602252579,0.011653104444175805,10.924208366848582,0.5982406313412882
93.0,20.76064717821772,0.5331756579250498,0.01164734811860925,10.92374506717133,0.5982485016813367
94.0,20.764246082153534,0.5333495320836784,0.011641593673531792,10.923281839998708,0.5982562260865123
95.0,20.76784427389285,0.5335233826327107,0.011635841082149018,10.922818685412317,0.5982639176542535
96.0,20.77144175281452,0.5336972095037328,0.01163009042146263,10.92235560349447,0.59827170929243
97.0,20.77503851829746,0.5338710126283593,0.011624341691339572,10.921892594327463,0.5982793081187202
98.0,20.778634569720666,0.5340447919382231,0.01161859489163606,10.921429657993588,0.5982868564323862
99.0,20.782229906463243,0.5342185473649853,0.011612850022197639,10.920966794575124,0.5982943784463478
100.0,20.785824527904367,0.5343922788403267,0.011607107082859164,10.920504004154337,0.59830184941439
101.0,20.789418433423293,0.5345659862959519,0.011601366073444858,10.920041286813483,0.5983093592580885
102.0,20.79301162239938,0.5347396696635911,0.011595626993768444,10.919578642634809,0.5983167267940582
103.0,20.796604094212068,0.5349133288749984,0.01158988984099128,10.919116071700442,0.5983242782629358
104.0,20.800195848240875,0.5350869638619501,0.011584154566339312,10.918653574090593,0.5983317971560623
105.0,20.803786883865435,0.5352605745562463,0.011578421220539334,10.91819114988747,0.5983390028496096
106.0,20.80737720046544,0.5354341608897136,0.011572689803386202,10.917728799173267,0.5983458539301565
107.0,20.81096679742069,0.535607722794201,0.011566960314663961,10.917266522030168,0.5983519914843659
108.0,20.814555674111084,0.5357812602015863,0.011561232754146045,10.916804318540347,0.5983576591170858
109.0,20.81814382991661,0.5359547730437636,0.011555507120811206,10.916342188785958,0.5983638142964173
110.0,20.82173126421734,0.5361282612526583,0.011549783411825512,10.915880132849137,0.5983722816679834
111.0,20.825317976393457,0.5363017247602211,0.011544061626993299,10.915418150812007,0.598381634001951
112.0,20.82890396582522,0.5364751634984246,0.011538341766112424,10.914956242756675,0.5983904338704046
113.0,20.832489231893014,0.5366485773992684,0.011532623828974218,10.914494408765238,0.5983987469192942
114.0,20.836073773977294,0.5368219663947759,0.011526907815363576,10.914032648919779,0.5984067166490253
115.0,20.839657591458636,0.5369953304169962,0.011521193725059097,10.913570963302368,0.5984150081017224
116.0,20.843240683717696,0.5371686693980079,0.011515481557833072,10.913109351995061,0.5984233648843935
117.0,20.846823050135246,0.5373419832699081,0.01150977131345158,10.912647815079904,0.5984319111097245
118.0,20.850404690092155,0.5375152719648258,0.011504062991674504,10.912186352638924,0.5984403878507011
119.0,20.853985602969388,0.5376885354149128,0.011498356564634033,10.91172496475386,0.5984487557586623
120.0,20.857565788148023,0.5378617735523488,0.011492652042678261,10.911263651506543,0.5984570884738872
121.0,20.86114524500924,0.5380349863093409,0.011486949442618619,10.910802412978958,0.5984654287697707
122.0,20.86472397293431,0.5382081736181186,0.011481248764203795,10.910341249253076,0.5984735055732409
123.0,20.868301971304636,0.5383813354109405,0.011475550007176398,10.909880160410854,0.5984814931873802
124.0,20.87187923950171,0.5385544716200913,0.01146985317127317,10.909419146534237,0.5984892443871225
125.0,20.87545577690713,0.5387275821778824,0.011464158256224821,10.908958207705155,0.5984968226970455
126.0,20.879031582902613,0.5389006670166513,0.011458465261756272,10.90849734400552,0.5985041599610632
127.0,20.882606656869974,0.539073726068768,0.011452774187586645,10.908036555517235,0.598511188054396
128.0,20.886180998191158,0.5392467592666209,0.011447085033429463,10.907575842322183,0.5985180109121523
129.0,20.8897546062482,0.5394197665426305,0.01144139779899263,10.907115204502237,0.5985250967222063
130.0,20.893327480423267,0.5395927478292472,0.011435712483978627,10.90665464213925,0.598532197625152
131.0,20.89689962009862,0.5397657030589434,0.01143002908808456,10.906194155315061,0.5985390682452095
132.0,20.900471024656632,0.5399386321642219,0.011424347611002207,10.905733744111501,0.5985459882279726
133.0,20.904041693479833,0.540111535077614,0.011418668019992164,10.905273408608744,0.5985529779301445
134.0,20.9076116259508,0.5402844117316787,0.011412990342797821,10.90481314888859,0.5985598629909705
135.0,20.911180821452284,0.5404572620590012,0.011407314579237928,10.904352965032821,0.5985666077938036
136.0,20.914749279367115,0.540630085992199,0.011401640729030308,10.903892857123209,0.5985732780064794
137.0,20.918316999078257,0.5408028834639147,0.011395968791890953,10.903432825241508,0.5985799471570752
138.0,20.921883979968804,0.5409756544068176,0.011390298767534203,10.902972869469457,0.5985865604188637
139.0,20.925450221421954,0.5411483987536109,0.01138463065567272,10.902512989888775,0.5985931697910173
140.0,20.929015722821042,0.5413211164370236,0.011378964456017738,10.902053186581172,0.5985996726853081
141.0,20.932580483549494,0.5414938073898138,0.011373300168278842,10.901593459628337,0.5986061599595037
142.0,20.936144502990906,0.5416664715447657,0.011367637792164233,10.901133809111943,0.5986124919315631
143.0,20.939707780528956,0.5418391088346995,0.01136197730532205,10.900674235112895,0.5986192014489634
144.0,20.943270315547473,0.5420117191924615,0.011356318706367944,10.900214737712126,0.5986262275397869
145.0,20.946832107430403,0.5421843025509245,0.011350662013628344,10.899755316991246,0.5986333523271051
146.0,20.950393155561805,0.5423568588429916,0.01134500722685666,10.89929597303185,0.5986404485002366
147.0,20.953953459325895,0.5425293880016008,0.011339354345808338,10.898836705915512,0.5986474342041009
148.0,20.957513018107,0.5427018899597149,0.01133370335728832,10.898377515723267,0.5986543647667252
149.0,20.961071831289573,0.5428743646503286,0.011328054247623535,10.897918402535607,0.5986610927961249
150.0,20.9646298982582,0.5430468120064657,0.011322407042358677,10.89745936643407,0.5986680586126393
151.0,20.968187218397603,0.5432192319611804,0.011316761741291988,10.897000407500169,0.59867510572041
152.0,20.971743791092635,0.5433916244475586,0.011311118310533556,10.896541525812575,0.5986820458036263
153.0,20.975299615728282,0.5435639893987151,0.011305476747498721,10.896082721450703,0.5986890544647391
154.0,20.97885469168965,0.5437363267477991,0.011299837078935377,10.895623994495601,0.5986960424901312
155.0,20.982409018361995,0.5439086364279803,0.011294199313027711,10.895165345028758,0.5987028456573019
156.0,20.985962595130694,0.5440809183724743,0.01128856344948424,10.894706773131643,0.5987095427910109
157.0,20.989515421381274,0.5442531725145149,0.011282929450566638,10.89424827888552,0.5987162056350237
158.0,20.9930674964994,0.5444253987873747,0.011277297348141192,10.893789862371722,0.5987228151673337
159.0,20.99661881987087,0.544597597124353,0.011271667114084668,10.893331523671048,0.5987292002081868
160.0,21.00016939088163,0.5447697674587837,0.011266038779792582,10.892873262864876,0.5987355355649446
161.0,21.003719208917758,0.5449419097240318,0.011260412345229802,10.892415080034572,0.5987428417996158
162.0,21.007268273365476,0.5451140238534917,0.01125478781036434,10.891956975261483,0.5987501681204139
163.0,21.010816583611167,0.545286109780593,0.011249165175167181,10.89149894862694,0.5987574712061949
164.0,21.014364139041326,0.5454581674387936,0.0112435444396122,10.891041000212255,0.5987647997343719
165.0,21.017910939042626,0.5456301967615885,0.011237925603675899,10.890583130098724,0.5987719248456608
166.0,21.02145698300186,0.5458021976825015,0.011232308667337588,10.890125338367625,0.5987789208398373
167.0,21.025002270305976,0.5459741701350858,0.0112266936266181,10.889667625100119,0.5987863604943463
168.0,21.028546800342077,0.5461461140529341,0.01122108046703624,10.88920999037698,0.5987937685039146
169.0,21.03209057249741,0.5463180293696644,0.0112154692070281,10.888752434279432,0.598801016636217
170.0,21.035633586159364,0.5464899160189377,0.011209859846597814,10.888294956888686,0.5988077895161356
171.0,21.039175840715487,0.5466617739344363,0.011204252385750886,10.88783755828593,0.5988161497310905
172.0,21.042717335553476,0.5468336030498838,0.011198646824494278,10.887380238552343,0.5988238859040605
173.0,21.046258070061178,0.547005403299031,0.011193043162836154,10.886922997769073,0.5988305599629965
174.0,21.04979804362661,0.5471771746156673,0.011187441391959074,10.886465836016846,0.5988364879687865
175.0,21.05333725563792,0.5473489169336122,0.011181841507763525,10.886008753376185,0.598843410126746
176.0,21.056875705483414,0.5475206301867198,0.011176243522835604,10.885551749928192,0.5988508216674963
177.0,21.06041339255158,0.5476923143088792,0.011170647437202901,10.885094825753953,0.5988580152852089
178.0,21.06395031623103,0.5478639692340134,0.011165053250893585,10.884637980934531,0.5988650329624071
179.0,21.06748647591056,0.5480355948960743,0.01115946096393609,10.884181215550974,0.5988723005153029
180.0,21.071021870979113,0.548207191229055,0.01115387057635884,10.883724529684315,0.5988797735828543
181.0,21.074556500825796,0.5483787581669785,0.011148282088190247,10.883267923415561,0.5988867020802839
182.0,21.078090364839873,0.548550295643906,0.011142695493386852,10.882811396825721,0.5988935028182911
183.0,21.081623462410786,0.548721803593926,0.01113711077629889,10.882354949995829,0.5989015705167406
184.0,21.085155792928116,0.5488932819511693,0.011131527959100163,10.881898583006834,0.5989093445795468
185.0,21.088687355781634,0.5490647306497979,0.011125947041838183,10.881442295939667,0.5989161440472823
186.0,21.092218150361262,0.5492361496240121,0.011120368024550933,10.880986088875249,0.5989222958236774
187.0,21.095748176057086,0.5494075388080417,0.0111147909072759,10.880529961894467,0.5989281469019142
188.0,21.09927743225938,0.5495788981361547,0.011109215690081178,10.880073915078201,0.5989337188691332
189.0,21.10280591835856,0.5497502275426546,0.01110364237303207,10.879617948507308,0.5989397251203897
190.0,21.10633363374522,0.5499215269618817,0.01109807095614085,10.879162062262623,0.5989471631015166
191.0,21.109860577810142,0.5500927963282107,0.011092501439411238,10.878706256424964,0.5989545434369675
192.0,21.113386749944247,0.5502640355760516,0.011086933822903893,10.87825053107513,0.5989615869136113
193.0,21.116912149538663,0.5504352446398496,0.011081368106650726,10.8777948862939,0.5989682940906186
