k,PSNR,SSIM,mse,Log-Gradient,Angle
0.0,20.423511145806437,0.5169423069374662,0.0,10.967059742438854,0.5964031915747728
1.0,20.426614752787636,0.5170891059766235,0.010149270924895535,10.966657700249133,0.5975212830443138
2.0,20.43025104418604,0.5172634611685667,0.012047561122093316,10.966191223422896,0.5975264062845643
3.0,20.433911256869184,0.5174391340570417,0.012159915536067612,10.965721868564227,0.5975384610080675
4.0,20.437573388943594,0.5176149274859027,0.012169193445629278,10.9652522486243,0.5975495577489184
5.0,20.441235720061837,0.5177907468053885,0.01216787634467608,10.964782578228455,0.5975554851040018
6.0,20.444898018931617,0.517966579252947,0.0121647246488958,10.964312888872561,0.5975646541812275
7.0,20.448560235206546,0.5181424220938183,0.012161084503655422,10.963843188122647,0.597574016116671
8.0,20.452222352422964,0.518318274345715,0.012157240415649383,10.96337347897881,0.5975825332033834
9.0,20.455884364691855,0.5184941356169374,0.012153282119058684,10.962903763076879,0.597590772756077
10.0,20.459546269744827,0.5186700057598257,0.01214926955924694,10.962434041130267,0.5975990355351072
11.0,20.463208066077133,0.518845884651757,0.012145230805108414,10.961964313537464,0.5976071883490522
12.0,20.46686975260354,0.5190217721983563,0.012141169538646523,10.961494580659279,0.5976152943200734
13.0,20.47053132825589,0.5191976683082041,0.012137099455573954,10.961024842689378,0.5976234804909037
14.0,20.47419279212129,0.5193735729038499,0.012133021544583176,10.9605550997827,0.5976316106415774
15.0,20.477854143525708,0.5195494859171318,0.012128936443698292,10.960085352070848,0.5976397379459639
16.0,20.481515381781122,0.5197254072811966,0.012124847487706954,10.95961559966175,0.5976479121580885
17.0,20.48517650624149,0.5199013369302125,0.012120756354799311,10.959145842655047,0.5976560630515003
18.0,20.488837516263736,0.5200772747991204,0.012116662671565559,10.958676081131195,0.5976641091921034
19.0,20.492498411197012,0.5202532208236536,0.01211256918973007,10.958206315159106,0.5976721793923179
20.0,20.49615919039834,0.5204291749378708,0.012108475909106822,10.957736544818506,0.5976802511091042
21.0,20.499819853155778,0.520605137067383,0.012104381326304575,10.957266770192199,0.5976882633254246
22.0,20.503480398844435,0.5207811071483115,0.012100286526575868,10.956796991358344,0.5976962875568815
23.0,20.5071408268406,0.5209570851168818,0.012096192129791674,10.95632720839044,0.5977043019228797
24.0,20.51080113652132,0.5211330709094001,0.01209209816547905,10.955857421361218,0.597712266896605
25.0,20.514461327264048,0.5213090644622073,0.012088004606856422,10.955387630343115,0.5977201964816946
26.0,20.51812139844644,0.5214850657116764,0.01208391146374848,10.954917835408073,0.5977280647619674
27.0,20.521781349446186,0.5216610745941803,0.012079818782621796,10.954448036627493,0.5977360535908435
28.0,20.52544117964086,0.5218370910460949,0.012075726573693235,10.953978234072531,0.597744149105326
29.0,20.52910088840783,0.5220131150037818,0.012071634844765458,10.953508427814167,0.5977521842339332
30.0,20.532760475124157,0.5221891464035785,0.01206754360174702,10.953038617923252,0.5977602020289313
31.0,20.536419939166564,0.522365185181802,0.012063452836056778,10.952568804470465,0.5977682284228711
32.0,20.54007927991137,0.5225412312747385,0.012059362412740415,10.952098987520145,0.5977762828898862
33.0,20.54373849673447,0.5227172846186415,0.012055272162415143,10.951629167140117,0.5977842492329287
34.0,20.547397589011283,0.5228933451497343,0.012051182222466674,10.951159343404454,0.5977922269264347
35.0,20.551056556116734,0.5230694128041949,0.012047092730474818,10.950689516383756,0.5978002033238633
36.0,20.554715397425262,0.5232454875181677,0.012043003620929568,10.950219686148493,0.5978080861739189
37.0,20.558374112310762,0.523421569227757,0.01203891460763408,10.94974985276854,0.5978159776561877
38.0,20.56203270014659,0.5235976578690235,0.012034825941019428,10.949280016315935,0.5978239234380583
39.0,20.565691160305583,0.5237737533779924,0.012030737264892687,10.948810176865814,0.5978319167482488
40.0,20.569349492159994,0.5239498556906398,0.012026648842231171,10.948340334489693,0.5978398737548583
41.0,20.573007695081543,0.5241259647429005,0.012022560860918999,10.947870489258214,0.5978477809830777
42.0,20.576665768441377,0.5243020804706715,0.012018473321283604,10.947400641242066,0.597855673613492
43.0,20.580323711610077,0.5244782028097975,0.01201438622351611,10.946930790511985,0.5978635949016282
44.0,20.583981523957625,0.5246543316960857,0.012010299567691124,10.946460937138752,0.5978714507353734
45.0,20.58763920485346,0.5248304670652962,0.012006213353783698,10.945991081193204,0.5978792427295978
46.0,20.591296753666416,0.5250066088531462,0.012002127581683774,10.945521222746228,0.597886900212831
47.0,20.594954169764748,0.5251827569953065,0.01199804213793209,10.94505136186916,0.5978943250650214
48.0,20.598611452527507,0.5253589114289776,0.011993956812785785,10.94458149863301,0.5979016040004966
49.0,20.6022686013298,0.525535072090843,0.011989871760148698,10.944111633108603,0.5979089498133372
50.0,20.60592561553809,0.5257112389164275,0.01198578698156999,10.943641765367266,0.5979164695273568
51.0,20.609582494518236,0.5258874118412117,0.011981702554229479,10.943171895480251,0.597924044813302
52.0,20.613239237635508,0.5260635908006303,0.011977618561062392,10.942702023518736,0.5979318058073386
53.0,20.616895844254604,0.5262397757300751,0.011973535002265235,10.942232149553957,0.5979398151994503
54.0,20.62055231373959,0.5264159665648868,0.011969451785699813,10.941762273657066,0.5979480132524776
55.0,20.62420864545398,0.5265921632403713,0.01196536885113987,10.941292395899165,0.5979564605742606
56.0,20.62786483876065,0.5267683656917792,0.011961286354817906,10.940822516351663,0.597965110624967
57.0,20.63152089302191,0.5269445738543203,0.011957204297015321,10.94035263508603,0.5979739023635464
58.0,20.63517680759947,0.5271207876631626,0.011953122677994428,10.939882752173807,0.5979824942139251
59.0,20.638832581854423,0.5272970070534236,0.011949041498000287,10.939412867686581,0.5979909617412195
60.0,20.642488215147278,0.5274732319601784,0.011944960757262243,10.938942981696016,0.5979991541829502
61.0,20.646143706837954,0.5276494623184613,0.011940880455995069,10.938473094273826,0.598007225019321
62.0,20.649799056285758,0.527825698063253,0.011936800539591355,10.938003205491952,0.5980152485927382
63.0,20.6534542628494,0.5280019391294967,0.011932720948996858,10.937533315422543,0.5980231870420961
64.0,20.657109325887,0.5281781854520913,0.011928641800884463,10.937063424137486,0.5980311881522985
65.0,20.660764244756077,0.5283544369658836,0.011924563095512583,10.936593531708724,0.5980392127606398
66.0,20.664419018813543,0.5285306936056869,0.011920484833124946,10.936123638208265,0.5980471859476574
67.0,20.668073647415728,0.5287069553062591,0.011916407013950992,10.935653743708185,0.5980550883583927
68.0,20.671728129918346,0.5288832220023221,0.011912329638206398,10.935183848280618,0.5980630415118187
69.0,20.675382465676513,0.5290594936285479,0.011908252706093265,10.934713951997761,0.5980709712524387
70.0,20.679036654044765,0.5292357701195681,0.011904176217800612,10.934244054931881,0.5980789254537436
71.0,20.682690694377015,0.5294120514099703,0.01190010017350468,10.9337741571553,0.598086748125839
72.0,20.686344586026596,0.529588337434291,0.011896024573368998,10.933304258740408,0.5980944973891535
73.0,20.689998328346224,0.5297646281270333,0.01189194941754481,10.93283435975966,0.5981021696878697
74.0,20.693651920688026,0.529940923422647,0.011887874706170998,10.932364460285571,0.5981089321920999
75.0,20.697305362403526,0.5301172232555459,0.011883800439374452,10.931894560390722,0.5981140205534108
76.0,20.700958652843653,0.5302935275600941,0.011879726617269992,10.931424660147755,0.5981217699802684
77.0,20.70461179135874,0.5304698362706136,0.01187565323996048,10.930954759629378,0.5981300235005281
78.0,20.708264777298506,0.5306461493213851,0.01187158030753709,10.930484858908361,0.598139432435015
79.0,20.71191761001208,0.5308224666466432,0.011867507820079112,10.93001495805754,0.5981480240946212
80.0,20.715570288848,0.530998788180579,0.011863435772420057,10.929545057149634,0.5981560728542056
81.0,20.719222813154182,0.5311751138573414,0.011859364118687876,10.929075156255912,0.5981639113921321
82.0,20.72287518227796,0.5313514436110357,0.011855292908218315,10.928605255449403,0.5981717480846812
83.0,20.726527395566062,0.5315277773757212,0.011851222141090925,10.928135354803192,0.598179539878048
84.0,20.73017945236462,0.531704115085422,0.011847151817374859,10.92766545439044,0.5981874132965036
85.0,20.733831352019156,0.5318804566741068,0.011843081937128878,10.927195554284362,0.5981953155247669
86.0,20.73748309387461,0.5320568020757118,0.011839012500401487,10.926725654558238,0.5982029437893034
87.0,20.7411346772753,0.5322331512241266,0.011834943507230813,10.926255755285418,0.5982103189814342
88.0,20.744786101564973,0.5324095040531978,0.011830874957644658,10.925785856539306,0.5982172541353413
89.0,20.748437366086755,0.5325858604967281,0.011826806851660527,10.92531595839338,0.5982237776626366
90.0,20.752088470183182,0.5327622204884789,0.011822739139115168,10.924846060919862,0.5982305006679122
91.0,20.755739413196185,0.5329385839621689,0.011818671853468219,10.92437616419193,0.5982378412668544
92.0,20.7593901944671,0.5331149508514755,0.011814605010755382,10.923906268283258,0.5982458765742311
93.0,20.76304081333666,0.5332913210900309,0.011810538610998917,10.923436373267577,0.5982537712665562
94.0,20.76669126914501,0.5334676946114228,0.011806472604178908,10.922966479218438,0.5982615366338206
95.0,20.770341561231685,0.5336440713492071,0.011802406965723038,10.922496586209089,0.598269458832393
96.0,20.77399168893562,0.5338204512368859,0.011798341771027124,10.922026694313445,0.5982772204720965
97.0,20.777641651595165,0.5339968342079253,0.011794277020125307,10.921556803605483,0.5982848834066209
98.0,20.78129144854806,0.5341732201957438,0.011790212713040657,10.921086914159247,0.5982925574991962
99.0,20.784941079131446,0.5343496091337286,0.011786148849785015,10.920617026048845,0.5983001276294896
100.0,20.788590542681874,0.5345260009552123,0.011782085430359036,10.920147139348444,0.59830777841131
101.0,20.792239838535302,0.5347023955934972,0.011778022454752268,10.919677254132283,0.5983152635182163
102.0,20.79588896602706,0.5348787929818329,0.011773959922943234,10.919207370474657,0.5983229047706538
103.0,20.79953792449192,0.5350551930534366,0.011769897823008016,10.918737488449453,0.5983305870613499
104.0,20.803186713264022,0.5352315957414789,0.011765836125508643,10.91826760812944,0.5983379611709797
105.0,20.80683533167693,0.5354080009790916,0.01176177487140491,10.917797729589104,0.5983450054422025
106.0,20.810483779063595,0.5355844086993607,0.011757714060653946,10.917327852902993,0.5983513326518136
107.0,20.814132054756378,0.5357608188353385,0.011753653693201608,10.916857978145723,0.5983571377097686
108.0,20.817780158087047,0.5359372313200269,0.011749593768982658,10.91638810539197,0.5983632993740867
109.0,20.821428088386757,0.5361136460863963,0.01174553428507119,10.915918234716468,0.5983717287138856
110.0,20.82507584498608,0.5362900630673657,0.011741475240860699,10.915448366194008,0.5983812240457067
111.0,20.82872342721498,0.5364664821958239,0.011737416636317813,10.914978499899442,0.5983902079385305
112.0,20.83237083440285,0.5366429034046099,0.01173335847140218,10.914508635907692,0.5983986776720703
113.0,20.83601806587845,0.5368193266265274,0.011729300746066398,10.91403877429374,0.5984067916261215
114.0,20.839665120969958,0.5369957517943396,0.011725243460256288,10.913568915132629,0.5984152664532937
115.0,20.84331199900496,0.5371721788407634,0.01172118661391083,10.913099058499471,0.5984237776012772
116.0,20.846958699310434,0.5373486076984787,0.011717130206962207,10.912629204469438,0.5984324911455711
117.0,20.850605221212785,0.5375250383001311,0.01171307423933597,10.912159353117763,0.5984411216991323
118.0,20.854251564037796,0.5377014705783113,0.011709018710951005,10.911689504519746,0.5984496433467823
119.0,20.857897727110664,0.5378779044655869,0.011704963583128693,10.911219658750355,0.5984581358543798
120.0,20.861543709755992,0.5380543398944732,0.01170090888878041,10.910749815884952,0.5984666054633726
121.0,20.865189511297785,0.5382307767974494,0.011696854633427447,10.910279975999023,0.5984748123387499
122.0,20.86883513105944,0.5384072151069544,0.011692800816975258,10.909810139168119,0.5984829342973073
123.0,20.87248056836379,0.5385836547553885,0.01168874743932279,10.90934030546785,0.5984908000388844
124.0,20.876125822533034,0.5387600956751114,0.011684694500362502,10.908870474973893,0.5984984953412815
125.0,20.879770892888804,0.5389365377984404,0.011680641999980418,10.908400647761985,0.5985059007655735
126.0,20.883415778752116,0.5391129810576579,0.011676589938056248,10.907930823907929,0.5985130254392369
127.0,20.887060479443413,0.5392894253850038,0.011672538314463425,10.907461003487589,0.5985199200849621
128.0,20.890704994282522,0.53946587071268,0.011668487129069238,10.90699118657689,0.5985273003267825
129.0,20.894349322588685,0.5396423169728471,0.011664436381734946,10.906521373251827,0.5985344659808879
130.0,20.897993463680564,0.5398187640976299,0.011660386072315768,10.906051563588454,0.5985414280703704
131.0,20.901637416876188,0.5399952120191115,0.011656336200661067,10.905581757662883,0.5985485785725521
132.0,20.905281181493027,0.5401716606693353,0.01165228674933884,10.905111955550401,0.598555673737717
133.0,20.908924756847938,0.5403481099803057,0.011648237718185184,10.904642157326498,0.5985626674573516
134.0,20.912568142257193,0.5405245598839933,0.011644189120007899,10.904172363067483,0.5985695146814568
135.0,20.916211337036454,0.5407010103123228,0.011640140954677736,10.903702572849735,0.5985763185927931
136.0,20.91985434050079,0.5408774611971835,0.011636093222063028,10.903232786749689,0.5985831048580279
137.0,20.92349715196471,0.5410539124704277,0.011632045922029925,10.902763004843846,0.5985898933007154
138.0,20.927139770742077,0.5412303640638668,0.011627999054442343,10.902293227208771,0.5985965725618929
139.0,20.9307821961462,0.5414068159092765,0.011623952619162131,10.901823453921091,0.5986032340673905
140.0,20.934424427489784,0.5415832679383911,0.011619906616048921,10.901353685057494,0.5986097620715177
141.0,20.93806646408494,0.5417597200829053,0.011615861044960428,10.900883920694731,0.5986163372722444
142.0,20.941708305243182,0.5419361722744833,0.01161181589399507,10.900414160909264,0.5986235433698021
143.0,20.945349950275443,0.542112624444742,0.011607771141491214,10.899944405776836,0.5986307360878799
144.0,20.94899139849204,0.5422890765252678,0.011603726815937245,10.899474655374375,0.5986380816135098
145.0,20.952632649202727,0.542465528447608,0.011599682917233057,10.899004909778869,0.5986452201915936
146.0,20.956273701716647,0.5426419801432619,0.011595639445279861,10.898535169067369,0.5986523639810956
147.0,20.959914555342362,0.542818431543709,0.01159159639524864,10.898065433316788,0.5986593324024865
148.0,20.963555209387827,0.5429948825803788,0.011587553738222863,10.897595702602901,0.5986663215034961
149.0,20.967195663160417,0.5431713331846666,0.011583511507016225,10.897125977002958,0.59867355714401
150.0,20.970835915966912,0.5433477832879304,0.011579469701570092,10.896656256594268,0.5986806914938612
151.0,20.974475967113513,0.5435242328214923,0.01157542829435783,10.8961865414518,0.598687847616702
152.0,20.9781158159058,0.5437006817166329,0.01157138727718134,10.895716831650702,0.5986950049389593
153.0,20.98175546164878,0.5438771299046021,0.011567346671358447,10.895247127267744,0.5987020036990223
154.0,20.985394903646863,0.5440535773166086,0.011563306490235912,10.894777428380529,0.5987088839455216
155.0,20.989034141203877,0.544230023883825,0.011559266733832601,10.894307735066723,0.59871569540587
156.0,20.99267317362306,0.5444064695373881,0.01155522736843287,10.893838047403879,0.5987224864786805
157.0,20.99631200020704,0.5445829142083967,0.011551188419441026,10.89336836546968,0.5987290332498213
158.0,20.999950620257877,0.5447593578279134,0.011547149860367461,10.892898689341319,0.5987355474171318
159.0,21.00358903307704,0.5449358003269672,0.011543111723689424,10.892429019096694,0.5987430449615812
160.0,21.007227237965417,0.5451122416365494,0.011539074009509074,10.891959354813764,0.5987505886762373
161.0,21.010865234223278,0.5452886816876091,0.011535036717931251,10.891489696570558,0.5987581079190659
162.0,21.01450302115033,0.5454651204110692,0.011530999849063356,10.891020044445163,0.5987656089716614
163.0,21.01814059804569,0.5456415577378123,0.011526963403015109,10.890550398515735,0.5987728975014219
164.0,21.02177796420788,0.5458179935986807,0.01152292737989865,10.89008075886049,0.5987802064296188
165.0,21.02541511893484,0.545994427924488,0.011518891779828176,10.889611125557709,0.5987878571988515
166.0,21.029052061523924,0.5461708606460075,0.01151485660036909,10.889141498685673,0.5987954453700918
167.0,21.032688791271884,0.5463472916939793,0.011510821825037489,10.888671878322281,0.5988028052264945
168.0,21.0363253074749,0.5465237209991082,0.011506787473110286,10.888202264546006,0.598810102067768
169.0,21.039961609428563,0.5467001484920607,0.011502753544724938,10.887732657435391,0.5988187523765661
170.0,21.04359769642788,0.5468765741034689,0.011498720040019832,10.887263057069037,0.598826317499802
171.0,21.047233567767258,0.5470529977639368,0.011494686959134208,10.88679346352561,0.5988328468624057
172.0,21.05086922274054,0.5472294194040209,0.011490654302208076,10.886323876883843,0.5988389232483583
173.0,21.054504660640966,0.5474058389542539,0.011486622059113527,10.885854297222025,0.5988465741609236
174.0,21.0581398807612,0.5475822563451255,0.011482590229317162,10.885384724618497,0.5988540645488737
175.0,21.061774882393316,0.5477586715070971,0.011478558823526467,10.88491515915218,0.5988614675219286
176.0,21.065409664828803,0.5479350843705922,0.011474527841898825,10.884445600902069,0.5988685934501811
177.0,21.069044227358575,0.5481114948659983,0.011470497284591619,10.883976049947213,0.5988765387459097
178.0,21.07267856927296,0.5482879029236721,0.011466467151762028,10.883506506366732,0.5988838567260363
179.0,21.076312689861687,0.5484643084739345,0.011462437443566785,10.88303697023981,0.5988908345302995
180.0,21.079946588413936,0.5486407114470736,0.01145840816016193,10.882567441645694,0.5988986586834043
181.0,21.08358026421826,0.5488171117733399,0.011454379273705009,10.882097920663773,0.5989068805570112
182.0,21.087213716562662,0.5489935093829512,0.011450350812293307,10.881628407373421,0.5989142849321193
183.0,21.09084694473456,0.5491699042060958,0.011446322776503615,10.881158901854079,0.5989207938757037
184.0,21.094479948020783,0.549346296172922,0.011442295166509627,10.880689404185246,0.5989268914088178
185.0,21.098112725707573,0.5495226852135513,0.011438267982483223,10.880219914446485,0.59893269315871
186.0,21.101745277080607,0.5496990712580633,0.011434241224594239,10.879750432717431,0.598938778359628
187.0,21.10537760142497,0.5498754542365109,0.011430214893010255,10.879280959077777,0.5989461483151014
188.0,21.109009698025154,0.550051834078912,0.011426188987896478,10.878811493607282,0.5989537996698738
189.0,21.112641566165117,0.5502282107152517,0.011422163509415545,10.878342036385767,0.5989610969712844
190.0,21.116273205128184,0.5504045840754772,0.011418138457727343,10.877872587493124,0.5989680387454145
191.0,21.119904614197132,0.5505809540895124,0.011414113832988853,10.877403147009302,0.598974876056356
192.0,21.12353579265414,0.5507573206872413,0.011410089635353915,10.876933715014317,0.5989816222255354
193.0,21.127166739780844,0.550933683798516,0.011406065864973275,10.87646429158825,0.598988304579278
194.0,21.130797454858246,0.5511100433531573,0.011402042521994163,10.87599487681125,0.5989950250800788
