k,PSNR,SSIM,mse,Log-Gradient,Angle
0.0,20.423511145806437,0.5169423069374662,0.0,10.967059742438854,0.5964031915747728
1.0,20.426614907954324,0.5170891133161918,0.01014977828696934,10.966657680147884,0.5975212834459968
2.0,20.430251536363247,0.5172634845684589,0.012048664055729774,10.966191159888739,0.5975264068301648
3.0,20.43391226915311,0.5174391823082352,0.012161624085548117,10.965721738110894,0.5975384636335064
4.0,20.43757510457329,0.5176150093891975,0.012171509393598167,10.965252027742933,0.5975495613051623
5.0,20.44123832233428,0.5177908711667141,0.012170799774892419,10.964782243398274,0.5975554912629913
6.0,20.44490169119029,0.5179667548827358,0.012168255314963813,10.96431241656244,0.5975646608556753
7.0,20.44856516083884,0.5181426578068441,0.012165222079554606,10.963842554791517,0.5975740263511236
8.0,20.45222871485922,0.5183185789610416,0.01216198454985167,10.963372661075825,0.5975825468062167
9.0,20.455892347404877,0.5184945179578743,0.012158632449850026,10.962902737041524,0.5975907897665271
10.0,20.459556056249653,0.5186704746539074,0.012155225716872449,10.962432783392408,0.5975990564176645
11.0,20.463219839930815,0.5188464489307257,0.012151792415727475,10.961962800517387,0.5976072135540961
12.0,20.46688369740491,0.5190224406981382,0.012148336226917945,10.961492788767718,0.5976153246671341
13.0,20.47054762764541,0.5191984498688929,0.012144870843637207,10.961022748327538,0.597623515920059
14.0,20.474211629780797,0.5193744763696849,0.012141397254019767,10.960552679342292,0.5976316517310273
15.0,20.47787570317825,0.5195505201364808,0.01213791609641615,10.960082581934092,0.5976397851383942
16.0,20.481539847190806,0.5197265811065406,0.012134430704033618,10.959612456201407,0.5976479650680193
17.0,20.485204061213267,0.5199026592181245,0.01213094275520728,10.959142302234431,0.5976561222733349
18.0,20.48886834464323,0.5200787544102482,0.012127451876040505,10.95867212010419,0.5976641756784041
19.0,20.492532696870335,0.5202548666227024,0.012123960817494667,10.958201909870182,0.5976722536759219
20.0,20.496197117291956,0.5204309957935843,0.01212046957938324,10.957731671602737,0.5976803333668833
21.0,20.49986160523623,0.5206071418525263,0.012116976658622235,10.95726140537528,0.5976883534194585
22.0,20.50352616011824,0.5207833047396472,0.012113483139777037,10.956791111256614,0.5976963873801948
23.0,20.507190781354034,0.5209594843951607,0.012109989642570294,10.956320789310888,0.5977044103740984
24.0,20.510855468360226,0.5211356807593371,0.012106496196448423,10.955850439601507,0.5977123844615434
25.0,20.51452022055369,0.5213118937724645,0.012103002774689012,10.955380062191598,0.5977203231907283
26.0,20.51818503735128,0.5214881233748443,0.012099509387063117,10.95490965714381,0.5977282015289784
27.0,20.52184991816974,0.5216643695067615,0.012096016079821645,10.954439224520263,0.5977362024250005
28.0,20.525514862425478,0.5218406321084816,0.012092522863106164,10.953968764382852,0.597744310190904
29.0,20.529179869534534,0.5220169111202444,0.012089029744644568,10.953498276793315,0.5977523556716012
30.0,20.53284493891246,0.5221932064822413,0.01208553673027122,10.953027761813274,0.5977603866217137
31.0,20.53651006997427,0.5223695181346257,0.012082043811286053,10.9525572195042,0.5977684253323031
32.0,20.540175262134408,0.5225458460175041,0.01207855085324457,10.952086649921227,0.5977764924969643
33.0,20.543840514806675,0.5227221900709323,0.012075057686631778,10.951616053123017,0.5977844699087066
34.0,20.547505827404247,0.5228985502349083,0.012071564448558645,10.951145429174474,0.5977924644017868
35.0,20.551171199339603,0.5230749264493824,0.012068071276301343,10.950674778137062,0.5978004519563879
36.0,20.554836630024546,0.5232513186542379,0.012064578105001651,10.95020410007213,0.5978083476945529
37.0,20.558502118870155,0.5234277267893068,0.0120610846472925,10.949733395040434,0.5978162568662403
38.0,20.56216766528678,0.5236041507943603,0.012057591154508876,10.94926266310492,0.5978242178540959
39.0,20.56583326868406,0.5237805906091072,0.01205409727051323,10.94879190433165,0.5978322287452403
40.0,20.569498928470864,0.5239570461731947,0.012050603256842764,10.948321118783088,0.5978401994051555
41.0,20.57316464405535,0.524133517426213,0.012047109301933126,10.947850306520838,0.5978481196650739
42.0,20.57683041484488,0.5243100043076844,0.012043615406037865,10.947379467606568,0.5978560307527785
43.0,20.5804962402461,0.5244865067570729,0.012040121569274101,10.946908602102008,0.5978639705152037
44.0,20.584162119664843,0.5246630247137767,0.012036627791642206,10.946437710068954,0.5978718404467996
45.0,20.58782805250621,0.5248395581171345,0.01203313407304295,10.945966791569273,0.5978796454969686
46.0,20.59149403817451,0.525016106906419,0.01202964041329183,10.9454958466649,0.5978873109917495
47.0,20.59516007607329,0.5251926710208387,0.012026146699210736,10.945024875418238,0.5978947406697342
48.0,20.598826165616654,0.525369250401106,0.012022652721590877,10.94455387789138,0.5979020366618885
49.0,20.602492306214636,0.5255458449874105,0.012019158632820593,10.944082854146254,0.597909410809017
50.0,20.606158497268396,0.5257224547187556,0.01201566443608714,10.943611804245302,0.5979169546115981
51.0,20.609824738178308,0.5258990795340849,0.012012170206374063,10.943140728250917,0.5979245582288003
52.0,20.61349102834397,0.526075719372276,0.012008676027426668,10.942669626225433,0.5979323561473416
53.0,20.61715736716419,0.5262523741721398,0.012005181899365749,10.942198498231257,0.5979404012329613
54.0,20.620823754036973,0.5264290438724255,0.012001687732799863,10.941727344330735,0.5979486413501763
55.0,20.62449018835955,0.5266057284118179,0.01199819346222936,10.941256164586177,0.5979571174071948
56.0,20.628156669528344,0.5267824277289362,0.011994699246184444,10.94078495906022,0.5979658298943978
57.0,20.631823196939006,0.5269591417623362,0.011991205084870149,10.94031372781558,0.5979746271174284
58.0,20.635489769986364,0.5271358704505089,0.01198771097847227,10.939842470915055,0.5979832364800471
59.0,20.63915638806449,0.5273126137318811,0.01198421692715917,10.939371188421521,0.5979917041145569
60.0,20.64282305056662,0.5274893715448145,0.011980722931083222,10.938899880397939,0.597999900932083
61.0,20.646489756885217,0.527666143827606,0.011977228990382139,10.938428546907344,0.5980079981210273
62.0,20.650156506411946,0.5278429305184932,0.011973735053106364,10.937957188013005,0.5980160321983335
63.0,20.653823298537667,0.528019731555642,0.011970241055038881,10.937485803778435,0.5980239940592361
64.0,20.657490132652452,0.5281965468771589,0.011966747115122755,10.937014394266889,0.5980320399247229
65.0,20.661157008145565,0.528373376421084,0.011963253233538343,10.93654295954171,0.5980400816849181
66.0,20.664823924405475,0.5285502201253983,0.011959759410451099,10.936071499666316,0.5980480735889419
67.0,20.668490880819846,0.5287270779280061,0.011956265646011984,10.93560001470421,0.5980560169456081
68.0,20.672157876775557,0.5289039497667624,0.011952771940357937,10.935128504718978,0.5980639853600668
69.0,20.67582491165866,0.529080835579447,0.011949278293612186,10.934656969774284,0.5980719554061396
70.0,20.679491984854433,0.5292577353037828,0.011945784705884567,10.934185409933878,0.5980799208432326
71.0,20.683159095747325,0.529434648877427,0.011942291177271934,10.933713825261592,0.5980877539751476
72.0,20.68682624372101,0.5296115762379657,0.011938797707858278,10.93324221582134,0.598095537696511
73.0,20.690493428158327,0.5297885173229328,0.011935304297714925,10.932770581677117,0.5981031893071501
74.0,20.694160648441347,0.5299654720697901,0.011931810946900757,10.932298922893002,0.5981097318228003
75.0,20.697827903951307,0.5301424404159375,0.011928317655462317,10.931827239533158,0.5981149145000083
76.0,20.70149519406865,0.5303194222987109,0.011924824423433912,10.931355531661827,0.5981229508445108
77.0,20.705162518173022,0.5304964176553845,0.01192133125083771,10.93088379934334,0.5981315003895534
78.0,20.70882987564325,0.5306734264231632,0.011917838137683781,10.930412042642102,0.5981408332230873
79.0,20.71249726585736,0.5308504485391939,0.011914345083970242,10.929940261622608,0.5981493539940045
80.0,20.716164688192578,0.5310274839405587,0.011910852083010088,10.929468456349209,0.5981573708933686
81.0,20.719832142025307,0.5312045325642715,0.011907359091994698,10.928996626884915,0.5981652445940585
82.0,20.723499626731158,0.5313815943472884,0.011903866158472519,10.928524773294473,0.5981731122904653
83.0,20.727167141684927,0.5315586692264999,0.011900373282440693,10.928052895642708,0.5981809360813857
84.0,20.73083468626059,0.5317357571387282,0.01189688046388571,10.92758099399453,0.5981888647208774
85.0,20.734502259831334,0.5319128580207427,0.011893387702783498,10.927109068414934,0.5981967676820988
86.0,20.73816986176952,0.5320899718092358,0.011889894999099366,10.926637118968996,0.5982043701561172
87.0,20.741837491446713,0.532267098440848,0.011886402352788084,10.926165145721876,0.5982117165234119
88.0,20.745505148233654,0.5324442378521507,0.011882909763793794,10.925693148738821,0.5982185756128066
89.0,20.749172831500292,0.5326213899796524,0.011879417232050101,10.925221128085159,0.598225159975292
90.0,20.752840540615747,0.532798554759801,0.011875924705479417,10.924749083824928,0.598231976559005
91.0,20.756508274948338,0.5329757321289751,0.011872432221350659,10.924277016023261,0.5982395798584983
92.0,20.760176033865562,0.5331529220234965,0.011868939793549624,10.923804924745742,0.5982476197945087
93.0,20.76384381673411,0.5333301243796218,0.011865447422013531,10.923332810058037,0.5982555174652892
94.0,20.767511622919862,0.5335073391335422,0.011861955056531186,10.922860672025612,0.5982633432307691
95.0,20.771179451787884,0.5336845662213885,0.011858462673138462,10.922388510713727,0.5982713025382586
96.0,20.774847302702426,0.5338618055792285,0.011854970346550614,10.921916326188292,0.5982790637276018
97.0,20.778515175026918,0.5340390571430641,0.011851478076715374,10.921444118515302,0.5982867695431128
98.0,20.782183068124,0.5342163208488367,0.011847985863569156,10.920971887760835,0.5982944498329643
99.0,20.785850981355477,0.5343935966324264,0.011844493707036852,10.920499633991055,0.5983020786910834
100.0,20.78951891408233,0.534570884429648,0.011841001607031923,10.92002735727221,0.598309747375018
101.0,20.793186865664754,0.5347481841762501,0.011837509563456406,10.919555057670626,0.5983172778621995
102.0,20.796854835462106,0.5349254958079265,0.01183401757620111,10.919082735252728,0.5983250085959441
103.0,20.80052282283294,0.5351028192603026,0.01183052563022056,10.918610390084408,0.5983326662481315
104.0,20.804190827134974,0.5352801544689431,0.011827033702279024,10.918138022230714,0.598339991356138
105.0,20.80785884772513,0.5354575013693459,0.011823541829988278,10.917665631758315,0.5983469066097499
106.0,20.8115268839595,0.5356348598969568,0.011820050013216519,10.917193218733956,0.5983530774605875
107.0,20.815194935193354,0.5358122299871483,0.011816558251820354,10.916720783224477,0.5983588078547138
108.0,20.81886300078116,0.5359896115752336,0.011813066545540075,10.916248325296797,0.5983654207914738
109.0,20.822531080076555,0.5361670045964667,0.011809574890884729,10.915775845017905,0.5983746537982262
110.0,20.82619917243236,0.5363444089860393,0.011806083287738781,10.915303342454878,0.5983841287662678
111.0,20.829867277200584,0.5365218246790704,0.011802591735979364,10.914830817674877,0.5983929976957985
112.0,20.83353539373241,0.5366992516106323,0.011799100235476378,10.914358270745147,0.5984013539878144
113.0,20.8372035213782,0.5368766897157252,0.011795608786092433,10.913885701733017,0.598409528010135
114.0,20.840871659487487,0.5370541389292873,0.01179211738768305,10.9134131107059,0.5984181719716902
115.0,20.844539807409006,0.5372315991862023,0.0117886260400967,10.912940497731295,0.5984268040473365
116.0,20.84820796449066,0.5374090704212843,0.011785134743174809,10.912467862876788,0.5984355408758308
117.0,20.851876130079525,0.5375865525692815,0.011781643496751851,10.911995206210044,0.5984441850231725
118.0,20.85554430352186,0.5377640455648952,0.011778152300655384,10.911522527798818,0.5984527560358553
119.0,20.859212484163102,0.5379415493427521,0.011774661112508286,10.911049827710508,0.5984613053507787
120.0,20.862880671347863,0.5381190638374215,0.011771169972498486,10.910577106013015,0.5984697278595774
121.0,20.866548864419943,0.5382965889834095,0.011767678882289826,10.910104362774346,0.5984779599779313
122.0,20.87021706272231,0.5384741247151611,0.011764187841695323,10.909631598062587,0.5984860286348868
123.0,20.873885265597103,0.5386516709670616,0.011760696850521156,10.909158811945913,0.5984938789608446
124.0,20.877553472385642,0.5388292276734332,0.01175720590856681,10.908686004492584,0.5985015305891518
125.0,20.881221682428432,0.5390067947685323,0.011753715015624956,10.908213175770943,0.5985088476834445
126.0,20.884889895065136,0.5391843721865656,0.01175022417148175,10.907740325849417,0.5985159347021293
127.0,20.88855810963462,0.5393619598616634,0.01174673337591676,10.907267454796523,0.5985230290613847
128.0,20.892226325474887,0.5395395577279055,0.011743242628703174,10.90679456268086,0.5985304146108966
129.0,20.895894541923145,0.5397171657193065,0.011739751929607826,10.90632164957111,0.5985375236323927
130.0,20.89956275831577,0.5398947837698165,0.011736261278391207,10.905848715536042,0.5985445734226297
131.0,20.903230973988304,0.5400724118133328,0.01173277067480781,10.90537576064451,0.5985517971101719
132.0,20.90689918827547,0.540250049783684,0.011729280095468192,10.904902784964259,0.5985588933214712
133.0,20.91056740051115,0.5404276976146452,0.011725789551158702,10.904429788563853,0.5985658600725349
134.0,20.914235610028413,0.5406053552399159,0.011722299049395472,10.90395677151241,0.598572723467559
135.0,20.917903816159487,0.5407830225931526,0.01171880858995343,10.903483733879135,0.598579592611186
136.0,20.921572018235786,0.5409606996079389,0.011715318172604832,10.90301067573331,0.5985864010411249
137.0,20.925240215587877,0.541138386217804,0.01171182779711942,10.902537597144306,0.5985932079221526
138.0,20.92890840754552,0.54131608235621,0.011708337463264443,10.902064498181588,0.5985999074968776
139.0,20.93257659343763,0.5414937879565657,0.011704847170804743,10.901591378914691,0.5986065848713013
140.0,20.93624477259231,0.5416715029522123,0.01170135691950277,10.901118239413249,0.5986131141081096
141.0,20.939912944336815,0.5418492272764351,0.011697866708459655,10.90064507974697,0.5986201163047172
142.0,20.943581107997584,0.5420269608624578,0.011694376516571193,10.900171899984946,0.5986273534085308
143.0,20.947249262900215,0.5422047036434412,0.011690886340790437,10.899698700196272,0.5986347260069604
144.0,20.95091740836949,0.5423824555524915,0.011687396200537915,10.8992254804509,0.5986419979396106
145.0,20.95458554372934,0.5425602165226474,0.011683906095615475,10.898752240818876,0.5986492153635581
146.0,20.958253668302888,0.5427379864868896,0.011680416025826276,10.898278981370327,0.598656320338157
147.0,20.96192178141241,0.5429157653781441,0.01167692597643289,10.89780570217484,0.598663211577744
148.0,20.965589882379355,0.543093553129269,0.011673435938177297,10.897332403301727,0.5986705125286504
149.0,20.96925797052434,0.5432713496730667,0.011669945933823755,10.896859084821385,0.5986777549554559
150.0,20.97292604516715,0.5434491549422787,0.01166645596269502,10.896385746804244,0.598684941163049
151.0,20.976594105626734,0.5436269688695846,0.011662965988381799,10.895912389317616,0.5986921467695953
152.0,20.98026215122122,0.543804791387609,0.011659476011028548,10.895439012430108,0.5986992850244652
153.0,20.983930181267873,0.5439826224289107,0.011655986063638548,10.894965616212357,0.5987062584813235
154.0,20.98759819508316,0.5441604619259922,0.011652496148526136,10.894492200735224,0.5987131130670418
155.0,20.991266191982675,0.5443383098112978,0.011649006258101667,10.89401876606962,0.5987200209095729
156.0,20.994934171281216,0.5445161660172092,0.011645516370253519,10.893545312286424,0.5987266913989541
157.0,20.998602132292735,0.5446940304760473,0.011642026497013559,10.893071839456429,0.5987332187948149
158.0,21.002270074330337,0.5448719031200786,0.011638536632653967,10.89259834765041,0.5987404964378049
159.0,21.005937996706315,0.545049783881506,0.01163504679774679,10.892124836939642,0.5987480847828189
160.0,21.009605898732108,0.5452276726924743,0.01163155699229172,10.89165130739549,0.5987556715230525
161.0,21.013273779718332,0.5454055694850714,0.011628067216290902,10.891177759089405,0.5987632691564269
162.0,21.016941638974778,0.5455834741913203,0.011624577469748522,10.89070419209293,0.5987706928455074
163.0,21.02060947581038,0.54576138674319,0.011621087752671086,10.890230606477687,0.5987779402469946
164.0,21.024277289533252,0.5459393070725894,0.011617598065066882,10.889757002315397,0.5987856640016266
165.0,21.027945079450664,0.5461172351113678,0.011614108406946138,10.88928337967786,0.5987933519481311
166.0,21.03161284486905,0.5462951707913156,0.011610618769130452,10.888809738636724,0.5988008786324375
167.0,21.035280585094025,0.5464731140441635,0.011607129148538203,10.888336079263635,0.5988078990928943
168.0,21.03894829943034,0.5466510648015848,0.011603639557472505,10.887862401630663,0.5988166492845973
169.0,21.04261598718194,0.5468290229951951,0.01160014999596535,10.887388705809965,0.5988245989313256
170.0,21.0462836476519,0.5470069885565461,0.011596660464049226,10.88691499187379,0.5988314266337891
171.0,21.04995128014249,0.5471849614171408,0.011593170961757241,10.886441259894468,0.598837486514691
172.0,21.05361888395512,0.5473629415084148,0.011589681489122905,10.885967509944427,0.5988449186132813
173.0,21.057286458390372,0.5475409287617471,0.011586192028576862,10.8854937420953,0.5988525668034064
174.0,21.060954002748005,0.5477189231084619,0.011582702594205877,10.885019956419532,0.5988600569610799
175.0,21.06462151632691,0.5478969244798225,0.011579213189217157,10.884546152989813,0.5988672240481318
176.0,21.06828899842516,0.5480749328070342,0.011575723813660167,10.884072331878922,0.5988752189573266
177.0,21.071956448339996,0.5482529480212457,0.011572234467583969,10.88359849315973,0.5988827047251607
178.0,21.075623865367803,0.5484309700535458,0.011568745151037032,10.883124636905192,0.5988897596046682
179.0,21.079291248804136,0.5486089988349664,0.011565255864066957,10.882650763188357,0.5988974573921926
180.0,21.082958597943723,0.5487870342964819,0.011561766590787378,10.882176872082406,0.5989058064568468
181.0,21.086625912080436,0.5489650763690065,0.011558277334756903,10.881702963660599,0.598913443504166
182.0,21.09029319050732,0.5491431249834013,0.011554788108783819,10.88122903799625,0.5989201128699801
183.0,21.09396043251658,0.5493211800704668,0.011551298912932852,10.880755095162758,0.5989263032775173
184.0,21.09762763739958,0.5494992415609464,0.011547809747266788,10.880281135233615,0.5989321944954545
185.0,21.10129480444685,0.5496773093855271,0.011544320611846248,10.879807158282398,0.5989382903138385
186.0,21.104961932948072,0.5498553834748331,0.011540831506729354,10.87933316438278,0.5989455904428175
187.0,21.108629022192098,0.5500334637594432,0.011537342431971697,10.878859153608518,0.5989533415249967
188.0,21.11229607146693,0.5502115501698678,0.011533853387626082,10.878385126033463,0.5989607350756118
189.0,21.115963080059743,0.5503896426365635,0.0115303643737424,10.87791108173155,0.5989677641223611
190.0,21.11963004725686,0.5505677410899332,0.011526875390367324,10.877437020776812,0.5989746654194966
191.0,21.123296972343773,0.5507458454603196,0.011523386437544388,10.876962943243363,0.5989814857585501
192.0,21.126963854605137,0.5509239556780066,0.011519897515313607,10.876488849205412,0.5989882272443862
193.0,21.130630693324758,0.5511020716732302,0.011516408623711389,10.87601473873726,0.5989950180384289
194.0,21.134297487785602,0.551280193376157,0.011512919762770427,10.875540611913292,0.5990016842900197
