k,PSNR,SSIM,mse,Log-Gradient,Angle
0.0,20.423511145806437,0.5169423069374662,0.0,10.967059742438854,0.5964031915747728
1.0,20.426614798423284,0.5170891081352434,0.010149420143769294,10.96665769433721,0.5975212831624518
2.0,20.430251188937323,0.5172634680505684,0.012047885497640225,10.966191204737248,0.597526406445026
3.0,20.433911554582522,0.5174391482477487,0.012160418016194666,10.965721830197824,0.5975384617802194
4.0,20.437573893505515,0.5176149515734362,0.012169874548343897,10.96525218366371,0.5975495587948794
5.0,20.441236485374,0.5177907833792854,0.01216873608831686,10.964782479756987,0.5975554869154452
6.0,20.44489909890745,0.5179666309039787,0.01216576295470118,10.964312749970729,0.5975646561442737
7.0,20.44856168377049,0.5181424914139372,0.012162301269450075,10.96384300186828,0.5975740191265592
8.0,20.452224223510168,0.5183183639280474,0.012158635531761348,10.963373238447113,0.597582537203825
9.0,20.45588671224803,0.5184942480557643,0.012154855472825937,10.96290346134046,0.5975907777586084
10.0,20.459549147726225,0.5186701436505761,0.012151021035648375,10.962433671259145,0.5975990416763192
11.0,20.463211528450405,0.5188460505910089,0.012147160287927101,10.961963868599096,0.5976071957613824
12.0,20.466873853345735,0.5190219687838229,0.01214327691123022,10.961494053718555,0.597615303244503
13.0,20.47053612135436,0.5191978981387336,0.012139384600535331,10.961024226808634,0.5976234909098087
14.0,20.474198331573646,0.519373838579413,0.012135484344376833,10.96055438802173,0.5976316227249787
15.0,20.477860483339747,0.5195497900388247,0.012131576780880804,10.960084537486901,0.597639751824035
16.0,20.481522575974793,0.5197257524512284,0.01212766524437614,10.959614675309544,0.5976479277174626
17.0,20.48518460884283,0.5199017257519061,0.012123751413101666,10.959144801586767,0.5976560804669817
18.0,20.48884658131081,0.5200777098768978,0.012119834913510373,10.958674916396506,0.5976641287437996
19.0,20.49250849273786,0.5202537047630434,0.012115918497108233,10.958205019805154,0.5976722012356266
20.0,20.49617034249094,0.5204297103454896,0.01211200216371516,10.95773511188992,0.597680275298614
21.0,20.499832129867958,0.5206057265509386,0.012108084410036357,10.957265192731104,0.5976882898025234
22.0,20.503493854253843,0.5207817533165948,0.012104166321128257,10.956795262404363,0.597696316900411
23.0,20.50715551503465,0.5209577905797619,0.012100248516824355,10.9563253209807,0.5977043338150354
24.0,20.510817111597106,0.5211338382778147,0.012096331026633947,10.955855368530349,0.5977123014619923
25.0,20.514478643328317,0.5213098963481652,0.012092413823799011,10.955385405123264,0.5977202337430211
26.0,20.518140109615533,0.5214859647282409,0.012088496918134522,10.95491543082891,0.5977281049811308
27.0,20.521801509845986,0.5216620433554796,0.012084580356049757,10.954445445716205,0.5977360973584461
28.0,20.525462843406718,0.521838132167299,0.012080664147745432,10.953975449853838,0.5977441964696643
29.0,20.529124109684528,0.522014231101108,0.01207674830100836,10.95350544331032,0.5977522346377873
30.0,20.532785308065836,0.5221903400942848,0.012072832821731373,10.953035426154047,0.5977602563052388
31.0,20.53644643793669,0.5223664590841771,0.012068917701304449,10.95256539845324,0.5977682863260579
32.0,20.54010749868266,0.5225425880080994,0.012065002804929304,10.952095360269785,0.5977763445301149
33.0,20.543768489688844,0.5227187268033314,0.01206108796319054,10.951625311669071,0.5977843141206276
34.0,20.54742941033979,0.5228948754071059,0.012057173313399097,10.951155252722724,0.5977922967627947
35.0,20.551090260019535,0.5230710337566173,0.012053258993051557,10.950685183498916,0.5978002763988232
36.0,20.554751038111526,0.523247201789014,0.012049344936835762,10.95021510406569,0.5978081630604236
37.0,20.558411743998644,0.5234233794414008,0.012045430858216832,10.949745014490492,0.5978160597573229
38.0,20.56207237706317,0.5235995666508342,0.012041517007897866,10.949274914842945,0.5978240100038715
39.0,20.56573293668678,0.5237757633543235,0.012037603029708365,10.948804805195774,0.5978320083503774
40.0,20.56939342225055,0.5239519694888338,0.012033689186208153,10.948334685618086,0.597839969485152
41.0,20.57305383313494,0.5241281849912742,0.012029775665449756,10.947864556178127,0.5978478805885846
42.0,20.576714168719782,0.5243044097985105,0.012025862467745037,10.947394416944187,0.5978557785965389
43.0,20.580374428384278,0.5244806438473592,0.01202194959326953,10.946924267984611,0.5978637053687806
44.0,20.584034611507022,0.5246568870745848,0.012018037042082206,10.946454109367798,0.5978715653295695
45.0,20.587694717465933,0.5248331394169046,0.012014124814142395,10.945983941162206,0.5978793611902143
46.0,20.591354745638313,0.5250094008109811,0.01201021290932435,10.945513763436345,0.5978870210631965
47.0,20.595014695400828,0.5251856711934318,0.012006301214257763,10.945043576259186,0.5978944473722881
48.0,20.598674566140854,0.5253619505023925,0.012002389519363128,10.944573379699376,0.5979017312953963
49.0,20.60233435724179,0.525538238675479,0.011998477978104485,10.944103173825383,0.5979090851194976
50.0,20.60599406807832,0.525714535649144,0.011994566592519289,10.94363295870618,0.597916612161051
51.0,20.609653698024488,0.5258908413597894,0.011990655439147306,10.943162734410674,0.5979241950643764
52.0,20.613313246453664,0.52606715574376,0.011986744601168336,10.942692501007706,0.5979319675141659
53.0,20.616972712738594,0.5262434787373599,0.011982834078762881,10.942222258566172,0.5979399874619528
54.0,20.62063209625135,0.5264198102768346,0.01197892378060711,10.9417520071549,0.5979481976802432
55.0,20.624291396363358,0.5265961502983845,0.01197501364492945,10.941281746842666,0.5979566536816198
56.0,20.62795061244539,0.5267724987381532,0.01197110382864472,10.940811477698562,0.5979653222418966
57.0,20.631609743867557,0.5269488555322372,0.011967194332018039,10.940341199791748,0.5979741153848799
58.0,20.635268789999323,0.5271252206166807,0.011963285155295544,10.93987091319145,0.5979827124686886
59.0,20.63892775020948,0.5273015939274809,0.011959376298705953,10.939400617966966,0.5979911802590655
60.0,20.64258662386618,0.5274779754005784,0.011955467762462205,10.938930314187655,0.597999373418952
61.0,20.646245410336913,0.5276543649718688,0.011951559546762762,10.938460001922948,0.598007451735791
62.0,20.64990410898851,0.5278307625771915,0.011947651597788671,10.937989681242497,0.5980154791162161
63.0,20.653562719187125,0.528007168152341,0.011943743854972511,10.937519352216176,0.5980234239907604
64.0,20.65722124029829,0.5281835816330576,0.01193983643566164,10.9370490149136,0.5980314386861891
65.0,20.66087967168685,0.528360002955033,0.011935929340097788,10.936578669404444,0.5980394680624248
66.0,20.66453801271701,0.5285364320539064,0.01193202256850796,10.93610831575846,0.5980474472050765
67.0,20.668196262752296,0.5287128688652684,0.011928116121104849,10.935637954045466,0.5980553616359081
68.0,20.671854421155583,0.5288893133246583,0.011924209998087224,10.935167584335346,0.5980633190965521
69.0,20.675512487289097,0.5290657653675678,0.011920304199640358,10.93469720669806,0.598071260891828
70.0,20.679170460514385,0.5292422249294364,0.011916398725936295,10.934226821203628,0.5980792182742346
71.0,20.682828340192355,0.5294186919456506,0.011912493577134222,10.93375642792215,0.598087044087385
72.0,20.68648612568323,0.5295951663515538,0.011908588753380682,10.933286026923787,0.5980948028047238
73.0,20.690143816346595,0.5297716480824325,0.01190468425480966,10.932815618278774,0.5981024711642535
74.0,20.69380141154136,0.5299481370735278,0.011900780081542895,10.932345202057412,0.5981091722370196
75.0,20.697458910625777,0.5301246332600267,0.011896876233689999,10.931874778330075,0.5981142346418854
76.0,20.70111631295745,0.5303011365770717,0.011892972711348454,10.931404347167204,0.5981221192734657
77.0,20.7047736178933,0.5304776469597541,0.01188906951460379,10.930933908639311,0.5981304583581996
78.0,20.708430824789595,0.530654164343108,0.011885166643529668,10.930463462816977,0.598139847018596
79.0,20.712087933001957,0.5308306886621333,0.011881264098187872,10.929993009770854,0.5981484167053425
80.0,20.71574494188532,0.5310072198517641,0.011877361872969604,10.929522549571466,0.5981564544248718
81.0,20.719401850793982,0.5311837578468963,0.011873459922913264,10.929052082287928,0.5981643020389279
82.0,20.72305865908156,0.5313603025823709,0.01186955829683376,10.9285816079911,0.5981721495944491
83.0,20.726715366101004,0.5315368539929797,0.011865656994792795,10.928111126751912,0.5981799449406868
84.0,20.73037197120463,0.5317134120134689,0.011861756016841633,10.927640638641364,0.5981878396471956
85.0,20.734028473744065,0.5318899765785313,0.011857855363021103,10.92717014373053,0.5981957437407941
86.0,20.737684873070275,0.5320665476228151,0.011853955033361601,10.926699642090547,0.5982033622350309
87.0,20.741341168533584,0.5322431250809162,0.01185005502788324,10.92622913379263,0.598210731023613
88.0,20.74499735948364,0.532419708887378,0.011846155346595595,10.925758618908052,0.5982176443194852
89.0,20.74865344526943,0.532596298976704,0.011842255989497973,10.92528809750817,0.5982241816352089
90.0,20.75230942523927,0.5327728952833414,0.011838356905869252,10.92481756966307,0.5982309337307314
91.0,20.755965298740833,0.5329494977416923,0.011834458130298504,10.924347035443839,0.598238352051771
92.0,20.759621065121102,0.5331261062861106,0.011830559678194179,10.923876494922043,0.5982463894905193
93.0,20.763276723726435,0.5333027208508959,0.011826661549560047,10.923405948169316,0.5982542849895481
94.0,20.766932273902484,0.5334793413703071,0.01182276369432672,10.922935395257104,0.5982620685039645
95.0,20.770587714994274,0.5336559677785497,0.01181886608810677,10.922464836256582,0.598270000715544
96.0,20.774243046346147,0.5338326000097823,0.011814968806102479,10.921994271239583,0.5982777626066408
97.0,20.777898267301783,0.5340092379981133,0.011811071848329075,10.921523700278014,0.598285433674801
98.0,20.781553377204215,0.5341858816776061,0.011807175214790645,10.92105312344385,0.5982931156031766
99.0,20.785208375395804,0.5343625309822734,0.011803278905479941,10.920582540809136,0.5983006940070904
100.0,20.788863261218232,0.5345391858460798,0.01179938292037848,10.920111952445989,0.5983083584402402
101.0,20.79251803401254,0.5347158462029465,0.011795487259456651,10.919641358426595,0.5983158551645251
102.0,20.796172693119104,0.5348925119867382,0.011791591922673674,10.919170758823212,0.5983235240199815
103.0,20.79982723787763,0.5350691831312789,0.011787696897191433,10.91870015370765,0.598331200737536
104.0,20.80348166762715,0.5352458595703428,0.011783802155408009,10.918229543150686,0.5983385615131384
105.0,20.80713598170606,0.5354225412376542,0.011779907737302333,10.917758927224781,0.5983455717143046
106.0,20.81079017945207,0.535599228066893,0.011776013642811903,10.917288306002472,0.5983518496251282
107.0,20.814444260202226,0.5357759199916888,0.011772119871862937,10.916817679556361,0.5983576320305058
108.0,20.818098223292925,0.535952616945626,0.011768226424370483,10.916347047959123,0.5983639052433316
109.0,20.821752068059887,0.5361293188622382,0.01176433329718698,10.915876411283488,0.5983725540156052
110.0,20.82540579383818,0.5363060256750171,0.011760440489888028,10.91540576960226,0.5983820853746379
111.0,20.829059399962205,0.536482737317402,0.011756548002420535,10.914935122988311,0.5983910347872223
112.0,20.832712885765694,0.5366594537227886,0.011752655834724273,10.914464471514577,0.598399468188041
113.0,20.83636625058173,0.53683617482452,0.011748763986732068,10.913993815254075,0.598407577511752
114.0,20.840019493742716,0.5370129005559002,0.011744872458369759,10.913523154279883,0.5984161215531164
115.0,20.843672614580395,0.537189630850182,0.011740981249556304,10.91305248866515,0.5984246660474257
116.0,20.847325612425852,0.5373663656405682,0.011737090360203876,10.912581818483098,0.5984333853434508
117.0,20.85097848660951,0.5375431048602194,0.011733199790217818,10.912111143807019,0.5984420231208719
118.0,20.854631236461124,0.5377198484422508,0.01172930953949683,10.91164046471027,0.5984505557277939
119.0,20.858283861309786,0.5378965963197256,0.011725419568278536,10.911169781265876,0.5984590677245599
120.0,20.861936360483927,0.538073348425664,0.011721529911626402,10.910699093547287,0.5984675268192682
121.0,20.865588733311316,0.5382501046930382,0.011717640573931185,10.910228401628068,0.5984757385134422
122.0,20.86924097911905,0.5384268650547769,0.011713751555077817,10.909757705581859,0.5984838442917877
123.0,20.87289309723357,0.5386036294437571,0.011709862854944625,10.909287005482364,0.5984917037844505
124.0,20.876545086980652,0.5387803977928164,0.011705974473403418,10.908816301403359,0.598499392572252
125.0,20.880196947685405,0.5389571700347382,0.011702086410319482,10.908345593418693,0.5985067709928152
126.0,20.883848678672287,0.5391339461022677,0.011698198665551685,10.90787488160228,0.5985138858660056
127.0,20.88750027926507,0.5393107259280993,0.01169431123895258,10.90740416602811,0.598520772894057
128.0,20.891151748786893,0.5394875094448847,0.0116904241303685,10.906933446770232,0.5985282189385482
129.0,20.894803086560202,0.5396642965852233,0.011686537339639652,10.906462723902777,0.5985353680857654
130.0,20.8984542919068,0.53984108728168,0.01168265086660015,10.905991997499937,0.598542323176958
131.0,20.90210536414782,0.5400178814667626,0.011678764711078154,10.90552126763598,0.5985495292693778
132.0,20.90575630260372,0.5401946790729406,0.011674878853880749,10.905050534384252,0.5985566230948383
133.0,20.90940710659432,0.5403714800326322,0.011670993298102617,10.904579797818496,0.5985636108315392
134.0,20.91305777543875,0.5405482842782195,0.011667108054986277,10.904109058013189,0.5985704573777023
135.0,20.916708308455483,0.5407250917420289,0.011663223124381075,10.903638315042883,0.598577280500012
136.0,20.92035870496234,0.5409019023563458,0.011659338506133907,10.9031675689822,0.5985840705416656
137.0,20.92400896427645,0.5410787160534141,0.011655454200089291,10.902696819905827,0.5985908727440554
138.0,20.92765908571433,0.5412555327654277,0.011651570206089567,10.902226067888526,0.5985975476447676
139.0,20.931309068591773,0.5414323524245345,0.01164768652397481,10.901755313005124,0.5986042246963873
140.0,20.93495891222396,0.5416091749628432,0.011643803153582941,10.901284555330523,0.5986107376208066
141.0,20.938608615925382,0.541786000312415,0.011639920094749763,10.900813794939692,0.5986174487353931
142.0,20.942258179009873,0.5419628284052628,0.011636037332469356,10.900343031907205,0.5986246659073609
143.0,20.94590760079061,0.5421396591733605,0.011632154850789656,10.899872266307142,0.598631914647458
144.0,20.949556880580083,0.5423164925486345,0.011628272675521698,10.899401498214667,0.5986392368654083
145.0,20.953206017690164,0.5424933284629702,0.011624390806543329,10.898930727705011,0.59864638917681
146.0,20.95685501143202,0.5426701668482009,0.011620509243733864,10.898459954853479,0.5986535326541972
147.0,20.960503861116177,0.5428470076361221,0.011616627979339036,10.897989179735116,0.5986604699983282
148.0,20.964152566052483,0.5430238507584856,0.01161274699026688,10.897518402424089,0.5986675567765903
149.0,20.96780112555015,0.5432006961469967,0.011608866306364365,10.897047622995915,0.598674793896058
150.0,20.971449538917692,0.5433775437333148,0.011604985927550469,10.896576841526185,0.598681916328439
151.0,20.975097805462994,0.5435543934490603,0.011601105823216567,10.896106058087879,0.59868910621455
152.0,20.97874592449324,0.5437312452258037,0.011597225988101985,10.895635272754523,0.598696268046981
153.0,20.982393895314985,0.5439080989950774,0.01159334644683331,10.895164485601374,0.5987032419145383
154.0,20.986041717234105,0.5440849546883683,0.011589467209501306,10.894693696704339,0.5987101333769088
155.0,20.989689389555807,0.5442618122371204,0.011585588276102024,10.894222906139404,0.5987169802186836
156.0,20.993336911584652,0.5444386715727304,0.011581709609695552,10.893752113982421,0.5987237358483649
157.0,20.996984282624535,0.5446155326265573,0.011577831238547146,10.893281320309354,0.5987302724265814
158.0,21.000631501978685,0.5447923953299125,0.011573953139806836,10.892810525195797,0.5987369907208006
159.0,21.00427856894967,0.5449692596140655,0.01157007534258008,10.892339728717989,0.5987445323711115
160.0,21.007925482839404,0.5451461254102453,0.011566197846945911,10.891868930952244,0.5987520728746796
161.0,21.011572242949136,0.5453229926496332,0.01156232065298596,10.891398131974945,0.5987596304076398
162.0,21.01521884857945,0.5454998612633714,0.01155844376078426,10.890927331862548,0.5987671129678996
163.0,21.018865299030285,0.5456767311825583,0.011554567170427221,10.890456530691576,0.598774379517096
164.0,21.022511593600896,0.54585360233825,0.011550690882003433,10.889985728538631,0.5987818012939619
165.0,21.02615773158989,0.5460304746614576,0.011546814895603533,10.88951492548038,0.598789480606921
166.0,21.029803712295212,0.5462073480831507,0.011542939206797444,10.889044121593443,0.5987970573154481
167.0,21.03344953501416,0.5463842225342622,0.011539063803088431,10.888573316954172,0.5988043265866567
168.0,21.037095199043346,0.5465610979456719,0.011535188701690173,10.888102511639454,0.5988120110945361
169.0,21.040740703678736,0.5467379742482251,0.011531313902716117,10.887631705726244,0.5988205628156694
170.0,21.044386048215635,0.5469148513727283,0.011527439406280664,10.887160899291569,0.5988278767954863
171.0,21.04803123194869,0.5470917292499343,0.011523565212498841,10.886690092412525,0.5988342460968166
172.0,21.051676254171877,0.5472686078105643,0.011519691321486477,10.886219285166286,0.5988406429590198
173.0,21.05532111417853,0.5474454869852915,0.011515817720919445,10.885748477629475,0.5988483583361658
174.0,21.058965811261317,0.5476223667047524,0.01151194441460089,10.885277669878995,0.5988558054147016
175.0,21.06261034471224,0.5477992468995367,0.011508071411024744,10.884806861992228,0.5988631712317555
176.0,21.066254713822644,0.5479761275001989,0.011504198710323772,10.884336054046635,0.5988705613183244
177.0,21.069898917883233,0.5481530084372487,0.011500326312630673,10.883865246119745,0.5988783937009994
178.0,21.073542956184028,0.5483298896411465,0.011496454218077766,10.883394438289159,0.5988855979090283
179.0,21.077186828014405,0.5485067710423307,0.011492582426796844,10.882923630632549,0.5988925941079193
180.0,21.08083053266307,0.5486836525711789,0.011488710934495133,10.882452823227677,0.5989007971726708
181.0,21.084474069418103,0.548860534158042,0.011484839721764985,10.881982016152424,0.5989088925000509
182.0,21.088117437566886,0.5490374157332196,0.011480968813043304,10.881511209484678,0.5989160487448816
183.0,21.091760636396167,0.5492142972269751,0.011477098208479922,10.881040403302398,0.5989224337628695
184.0,21.095403665192045,0.5493911785695348,0.01147322790822314,10.880569597683612,0.5989284701771967
185.0,21.099046523239927,0.5495680596910795,0.01146935791241931,10.880098792706423,0.5989342594649144
186.0,21.1026892098246,0.5497449405217486,0.011465488221212636,10.879627988449005,0.5989404450794972
187.0,21.106331724230177,0.5499218209916463,0.011461618834745058,10.879157184989605,0.5989482909040509
188.0,21.109974065740126,0.5500987010308326,0.011457749753155938,10.878686382406539,0.5989558711563135
189.0,21.113616233637234,0.5502755805693295,0.011453880976582023,10.878215580778194,0.5989630810014396
190.0,21.117258227203664,0.5504524595371162,0.011450012505157144,10.877744780183036,0.5989699524400668
191.0,21.120900045720894,0.550629337864137,0.011446144339012225,10.877273980699599,0.5989768382622688
192.0,21.124541688469773,0.5508062154802885,0.011442276478274935,10.876803182406487,0.5989835439599301
193.0,21.12818315473048,0.5509830923154357,0.011438408923069658,10.87633238538238,0.5989902796039425
194.0,21.13182444378253,0.5511599682993992,0.011434541673517262,10.875861589706025,0.5989969899244728
