k,PSNR,SSIM,mse,Log-Gradient,Angle
0.0,20.82835000922366,0.424777493151324,0.0,10.880640298632194,0.5806975340874952
1.0,20.831499659620395,0.4249344987348887,0.009731975633777229,10.880213402920587,0.5979046309568873
2.0,20.835355878679028,0.42513220468106744,0.012102265098413266,10.879695663159122,0.598115913727641
3.0,20.83925799802596,0.425333147087984,0.012305377642079684,10.87917211854255,0.5981434456569436
4.0,20.843165578527113,0.42553456959611474,0.012333421591864895,10.878647846958193,0.5981691344803518
5.0,20.847074333396947,0.4257361407779887,0.01233775011596045,10.87812338912527,0.5981933965601813
6.0,20.85098349281097,0.4259377958211059,0.012336813378196546,10.877598845915243,0.5982161157985507
7.0,20.854892853761648,0.42613951649156373,0.012334222004970094,10.877074245705378,0.5982316452411731
8.0,20.85880234662629,0.4263412958301415,0.012330967559873774,10.876549598339876,0.5982417465897997
9.0,20.86271194403503,0.42654313098926,0.01232742791046493,10.876024907814065,0.5982547564801547
10.0,20.86662163257462,0.42674502060619074,0.012323723503367134,10.875500176667336,0.5982681271909885
11.0,20.8705314049579,0.42694696397035115,0.01231993385695492,10.874975405960035,0.5982814285561958
12.0,20.874441256796178,0.4271489606136864,0.012316087754686766,10.874450596338525,0.5982941799761854
13.0,20.87835118528295,0.4273510102105056,0.012312200812496756,10.873925748323705,0.5983070295509487
14.0,20.8822611887177,0.4275531125419938,0.012308289088343924,10.873400862352513,0.5983199135259128
15.0,20.88617126518806,0.42775526739090614,0.012304356067886116,10.872875938659979,0.5983327927640654
16.0,20.890081413621754,0.4279574746364008,0.012300413691966458,10.872350977439039,0.5983455235870346
17.0,20.89399163315552,0.42815973416483555,0.012296463773138021,10.871825978870675,0.5983578696081752
18.0,20.897901922784847,0.42836204584546267,0.01229250146098031,10.871300943123984,0.5983697362569793
19.0,20.90181228171224,0.42856440956982134,0.012288534260887949,10.870775870335624,0.5983811205430652
20.0,20.905722709228588,0.42876682524878146,0.012284564900822798,10.870250760611526,0.5983921792012836
21.0,20.909633204591746,0.42896929278852586,0.012280590970759458,10.86972561405315,0.5984032117796649
22.0,20.913543767147594,0.4291718121059677,0.012276613933505948,10.869200430755177,0.5984143235855569
23.0,20.917454396288715,0.4293743831223031,0.012272636054928588,10.868675210807705,0.5984254766103233
24.0,20.92136509141281,0.4295770057596637,0.012268657500687572,10.868149954299543,0.5984365418898377
25.0,20.925275851925655,0.42977967994326277,0.012264678582060174,10.867624661315437,0.5984478776673505
26.0,20.929186677170488,0.42998240558819467,0.01226069485308479,10.867099331935302,0.5984592667124143
27.0,20.933097566511215,0.4301851826081875,0.012256706563696,10.866573966257906,0.598470554096337
28.0,20.937008519376317,0.43038801092744167,0.012252717731405556,10.866048564361773,0.5984818699855122
29.0,20.940919535185127,0.4305908904694074,0.01224872853920039,10.865523126333601,0.5984930590926428
30.0,20.94483061333331,0.43079382115354586,0.012244737482471003,10.864997652268935,0.5985040325393381
31.0,20.948741753249788,0.43099680290388215,0.012240746516992855,10.864472142246726,0.5985148194162814
32.0,20.952652954363643,0.4311998356444458,0.012236755498002573,10.863946596334584,0.5985255335480358
33.0,20.956564216103377,0.4314029192991316,0.01223276459821285,10.863421014610006,0.5985361922945978
34.0,20.96047553788527,0.4316060537899577,0.01222877349737378,10.862895397147588,0.5985467780266223
35.0,20.964386919118446,0.431809239038859,0.012224781477572813,10.862369744023377,0.598557357598403
36.0,20.968298359209655,0.4320124749673107,0.012220788087322082,10.861844055319853,0.5985679685896299
37.0,20.972209857581184,0.43221576149827706,0.01221679446152364,10.861318331114719,0.598578482590985
38.0,20.97612141366014,0.4324190985552283,0.012212800938530114,10.860792571485385,0.5985888458387258
39.0,20.98003302687307,0.4326224860615115,0.012208807523441723,10.860266776509228,0.5985990522100454
40.0,20.983944696645857,0.43282592394034475,0.012204814220646155,10.859740946263615,0.5986090318950028
41.0,20.987856422403794,0.433029412114818,0.012200821033921042,10.859215080825914,0.5986188457848164
42.0,20.991768203571553,0.43323295050789956,0.01219682796651998,10.858689180273503,0.5986287216847782
43.0,20.995680039573173,0.43343653904243107,0.012192835021244729,10.858163244683785,0.5986383657803936
44.0,20.999591929832068,0.43364017764113183,0.012188842200506431,10.857637274134198,0.5986501493232764
45.0,21.003503873768928,0.43384386622634524,0.012184849483965508,10.857111268701631,0.5986613414731369
46.0,21.007415870799683,0.43404760471983056,0.012180856827893407,10.856585228461855,0.5986722653854988
47.0,21.01132792034589,0.4342513930439284,0.012176864299408131,10.85605915349242,0.5986833449356842
48.0,21.01524002182849,0.4344552311208573,0.012172871899854705,10.855533043870945,0.5986943020749576
49.0,21.019152174667756,0.43465911887269654,0.012168879630379856,10.8550068996751,0.5987052388203142
50.0,21.023064378283344,0.43486305622140026,0.01216488749195656,10.854480720982624,0.5987164131958421
51.0,21.026976632094268,0.4350670430888132,0.012160895485405363,10.853954507871325,0.598727903712393
52.0,21.030888935518888,0.43527107939662857,0.012156903611412891,10.853428260419086,0.5987394279568701
53.0,21.034801287974958,0.43547516506642503,0.012152911870548126,10.852901978703859,0.5987510015885184
54.0,21.038713688878694,0.43567930001952493,0.012148920219932033,10.852375662803485,0.5987627033559064
55.0,21.042626137643925,0.4358834841768426,0.012144928565825714,10.851849312795453,0.5987748604339802
56.0,21.04653863368659,0.43608771745959274,0.012140937045455689,10.851322928757947,0.5987870248908285
57.0,21.050451176422,0.43629199978886873,0.012136945491387817,10.8507965107695,0.5987995100718616
58.0,21.054363765264817,0.43649633108563063,0.012132954047644745,10.850270058908487,0.5988119672371368
59.0,21.05827639962942,0.4367007112710377,0.012128962516095434,10.849743573254283,0.5988247384667714
60.0,21.062189078928817,0.43690514026589455,0.012124971007462147,10.849217053886079,0.5988376620627537
61.0,21.06610180257453,0.43710961799052983,0.012120979464664762,10.848690500882478,0.5988506117500373
62.0,21.07001456997786,0.4373141443652467,0.012116987911690509,10.848163914322205,0.5988638064534718
63.0,21.073927380550543,0.4375187193103968,0.012112996501950805,10.847637294283867,0.5988771563419893
64.0,21.077840233703643,0.437723342746213,0.012109005236015203,10.847110640846168,0.5988907984524653
65.0,21.081753128847588,0.43792801459279257,0.012105014114413126,10.8465839540879,0.5989043810820002
66.0,21.08566606539215,0.43813273477010606,0.012101023137638067,10.846057234087949,0.5989178021089175
67.0,21.08957904274646,0.4383375031980006,0.01209703230615116,10.845530480925294,0.5989310255098407
68.0,21.093492060319,0.438542319796196,0.012093041620384515,10.845003694679013,0.598943600946913
69.0,21.0974051175176,0.4387471844842828,0.01208905100448359,10.844476875427814,0.5989532389272626
70.0,21.10131821374945,0.4389520971817338,0.012085060482926286,10.84395002325064,0.5989667369234676
71.0,21.105231348421075,0.43915705780788983,0.012081070112600253,10.843423138226868,0.5989781748151467
72.0,21.10914452093731,0.4393620662818328,0.01207707980802661,10.842896220434111,0.5989896062929875
73.0,21.113057730703332,0.43956712252266544,0.012073089646142404,10.842369269951737,0.5990012150371632
74.0,21.116970977121237,0.43977222644918096,0.012069099581730297,10.84184228685867,0.5990129786669853
75.0,21.120884259591772,0.4399773779800278,0.012065109597860882,10.841315271233695,0.5990240149105158
76.0,21.12479757751846,0.44018257703392943,0.01206111976765083,10.840788223156682,0.5990341269887106
77.0,21.128710930304177,0.4403878235294825,0.012057130091636678,10.840261142707604,0.5990441622231678
78.0,21.13262431735115,0.4405931173851716,0.012053140570332676,10.839734029966532,0.5990545967196991
79.0,21.136537738060944,0.4407984585193379,0.012049151199285051,10.839206885013681,0.5990650941252094
80.0,21.1404511918345,0.4410038468501985,0.012045161966982843,10.838679707929447,0.5990773945100795
81.0,21.14436467807213,0.4412092822958378,0.012041172874359667,10.838152498794335,0.5990877344439737
82.0,21.148278196173468,0.44141476477422814,0.01203718392236665,10.837625257688936,0.5990981560428809
83.0,21.152191745537557,0.44162029420320664,0.012033195111972216,10.83709798469394,0.5991093224820981
84.0,21.15610532556278,0.4418258705004871,0.012029206444161705,10.836570679890134,0.5991207492486783
85.0,21.160018935646875,0.44203149358368127,0.012025217919937006,10.836043343358398,0.5991305183665337
86.0,21.163932575186955,0.4422371633702436,0.01202122954031593,10.83551597517971,0.5991427471288168
87.0,21.167846243579497,0.4424428797775242,0.012017241306331557,10.834988575435148,0.5991548657830045
88.0,21.171759940220312,0.4426486427227578,0.01201325321903154,10.834461144205878,0.5991667945215893
89.0,21.175673664504593,0.44285445212303637,0.012009265265314437,10.833933681573225,0.59917881860785
90.0,21.17958741582688,0.4430603078953292,0.012005277418072665,10.833406187618696,0.5991908474084648
91.0,21.18350119358075,0.44326620995642885,0.012001289701312137,10.83287866242342,0.599202738995034
92.0,21.187414997158843,0.4434721582229386,0.011997302099330412,10.832351106068323,0.5992146657050059
93.0,21.191328825953807,0.44367815261147525,0.01199331464821844,10.831823518635044,0.5992268035152033
94.0,21.195242679357655,0.4438841930385136,0.011989327349186259,10.831295900205323,0.5992388890125766
95.0,21.199156556761736,0.4440902794204212,0.011985340203451003,10.830768250860997,0.5992517102192927
96.0,21.203070457556766,0.44429641167344286,0.011981353212235922,10.830240570683998,0.5992657956654782
97.0,21.206984381132813,0.4445025897136909,0.011977366376769214,10.829712859756356,0.5992785618121902
98.0,21.210898326879274,0.44470881345715346,0.011973379698282821,10.8291851181602,0.5992904568326255
99.0,21.21481229418492,0.4449150828197035,0.011969393174420043,10.828657345977732,0.5993019554177813
100.0,21.218726282437864,0.44512139771707826,0.011965406805922419,10.82812954329124,0.599314367217668
101.0,21.222640291025563,0.44532775806490466,0.011961420594070711,10.827601710183115,0.5993276804590403
102.0,21.226554319334813,0.44553416377867644,0.011957434540148148,10.827073846735848,0.5993410300449381
103.0,21.23046836675178,0.44574061477376986,0.01195344864543915,10.826545953032022,0.5993540903244546
104.0,21.23438243266195,0.44594711096542233,0.011949462911227718,10.826018029154323,0.599367023256721
105.0,21.238296516450298,0.44615365226876674,0.011945477324578253,10.825490075185412,0.5993799472196292
106.0,21.242210617501357,0.44636023859881463,0.011941491864603271,10.824962091207853,0.5993932070064486
107.0,21.246124735198684,0.44656686987044597,0.011937506569365182,10.824434077304618,0.5994062966832464
108.0,21.250038868925177,0.4467735459984114,0.01193352144016414,10.823906033558782,0.5994191850800424
109.0,21.253953018063058,0.4469802668973393,0.011929536478291121,10.823377960053516,0.5994319062231254
110.0,21.25786718199391,0.44718703248174324,0.011925551685026785,10.822849856872095,0.5994445622742565
111.0,21.26178136009863,0.44739384266600474,0.01192156706164011,10.822321724097888,0.5994576886965463
112.0,21.265695551757474,0.4476006973643714,0.01191758260938723,10.82179356181437,0.5994715248419141
113.0,21.269609756350015,0.4478075964909885,0.011913598329509943,10.821265370105115,0.5994840915227915
114.0,21.273523973255173,0.44801453995985163,0.011909614223234593,10.820737149053796,0.5994963223540284
115.0,21.27743820185119,0.4482215276848594,0.011905630291770476,10.820208898744188,0.5995083388118908
116.0,21.281352441515654,0.4484285595797602,0.011901646536308604,10.819680619260167,0.5995203616928318
117.0,21.285266691625466,0.448635635558196,0.011897662958020238,10.81915231068571,0.5995323015537751
118.0,21.289180951556883,0.44884275553367337,0.011893679558055656,10.8186239731049,0.5995439617635306
119.0,21.293095220685473,0.4490499194195802,0.011889696337542725,10.818095606601917,0.5995555303662478
120.0,21.29700949838614,0.44925712712918225,0.011885713297585603,10.817567211261045,0.5995674709835094
121.0,21.30092378403345,0.4494643785758911,0.011881730402579085,10.817038787164023,0.5995790744211081
122.0,21.304838077001087,0.4496716736727982,0.011877747677349077,10.816510334394643,0.5995905805971398
123.0,21.308752376661957,0.44987901233280203,0.011873765132461184,10.815981853037503,0.5996024026008774
124.0,21.312666682388297,0.45008639446865156,0.01186978276902766,10.815453343177307,0.5996144203560151
125.0,21.316580993551675,0.45029381999299517,0.01186580058813344,10.814924804898862,0.5996259048152752
126.0,21.32049530952298,0.4505012888183515,0.011861818590834851,10.814396238287081,0.5996367165260007
127.0,21.324409629672427,0.45070880085710135,0.011857836776944445,10.813867643426976,0.5996471831731218
128.0,21.328323953369544,0.4509163560215175,0.011853855145963228,10.813339020403667,0.5996614268095999
129.0,21.332238279983002,0.4511239542238397,0.011849873674234982,10.812810369301749,0.5996740962038872
130.0,21.3361526088809,0.45133159537613005,0.011845892377018842,10.81228169020628,0.5996861102729538
131.0,21.340066939430777,0.45153927939027944,0.011841911266049958,10.811752983202696,0.5996979255838303
132.0,21.343981270999464,0.45174700617805513,0.01183793034221376,10.81122424837654,0.5997099304627699
133.0,21.34789560295315,0.451954775651096,0.01183394960635941,10.810695485813456,0.5997217844820951
134.0,21.351809934657116,0.45216258772091084,0.01182996905288674,10.810166695598538,0.5997335540052352
135.0,21.355724265474922,0.4523704422988541,0.011825988652213687,10.809637877813593,0.5997450650403665
136.0,21.359638594770733,0.45257833929616725,0.011822008436542634,10.809109032544542,0.5997562932083369
137.0,21.36355292190803,0.4527862786240031,0.011818028406792353,10.808580159877412,0.5997687680020779
138.0,21.36746724624963,0.4529942601933797,0.011814048549628156,10.80805125989724,0.5997813605695905
139.0,21.37138156715764,0.4532022839151815,0.011810068860618177,10.807522332688832,0.5997939100373043
140.0,21.375295883993527,0.45341034970017896,0.011806089359038648,10.80699337833854,0.5998063664716877
141.0,21.379210196118052,0.45361845745901225,0.011802110045710502,10.80646439693282,0.5998185214512274
142.0,21.38312450289085,0.4538266071022787,0.01179813090252105,10.805935388557598,0.5998310018994446
143.0,21.387038803671704,0.45403479854050244,0.01179415191210625,10.805406353298286,0.5998433231049864
144.0,21.390953097820212,0.45424303168402763,0.011790173100150054,10.804877291241272,0.5998554895787162
145.0,21.39486738469447,0.4544513064430074,0.011786194478767237,10.804348202473465,0.5998677326272981
146.0,21.398781663651878,0.454659622727466,0.011782216048672033,10.803819087081878,0.5998798322307954
147.0,21.40269593404917,0.45486798044730725,0.011778237810538161,10.803289945153637,0.5998921002342676
148.0,21.406610195242383,0.4550763795123143,0.011774259764998168,10.802760776775973,0.5999040192168864
149.0,21.41052444658689,0.4552848198321428,0.011770281912643068,10.802231582036224,0.5999151650194091
150.0,21.414438687437357,0.45549330131633076,0.0117663042540215,10.801702361021844,0.5999276592655586
151.0,21.418352917147786,0.4557018238742876,0.011762326786623634,10.801173113820372,0.5999413782075521
152.0,21.42226713507149,0.4559103874153047,0.011758349504271463,10.800643840519399,0.5999549984687176
153.0,21.426181340561644,0.45611899184868454,0.011754372376455676,10.800114541204522,0.5999679397660409
154.0,21.430095532970412,0.45632763708352336,0.011750395424720816,10.799585215962876,0.5999802911249407
155.0,21.434009711647487,0.45653632302857866,0.011746418663375563,10.79905586488123,0.5999918358030628
156.0,21.437923875938164,0.4567450495921168,0.011742442066154221,10.798526488042993,0.6000027304375536
157.0,21.441838025192062,0.4569538166827794,0.011738465638853382,10.797997085535968,0.6000144888795292
158.0,21.445752158758125,0.4571626242091109,0.011734489365876323,10.797467657446667,0.6000276589652221
159.0,21.449666275984637,0.4573714720795148,0.011730513257840065,10.796938203862483,0.6000409280801796
160.0,21.453580376219207,0.45758036020228116,0.011726537308989371,10.79640872487108,0.6000541752021015
161.0,21.457494458808775,0.45778928848558764,0.011722561515728529,10.795879220560117,0.6000669631880661
162.0,21.46140852309962,0.45799825683748513,0.011718585899531021,10.795349691018222,0.6000792173605097
163.0,21.46532256843736,0.45820726516590193,0.011714610460289016,10.794820136334144,0.6000888358920875
164.0,21.469236594166937,0.45841631337866834,0.011710635194118144,10.794290556596735,0.6000987453080276
165.0,21.473150599632646,0.4586254013834645,0.011706660072235694,10.79376095189491,0.6001095968823209
166.0,21.47706458417811,0.45883452908787103,0.011702685127043505,10.793231322317771,0.6001210427951021
167.0,21.48097854714516,0.4590436963991629,0.011698710337826664,10.7927016679533,0.6001333860308885
168.0,21.48489248787575,0.45925290322462214,0.011694735718866082,10.792171988890445,0.6001456229125537
169.0,21.488806405711568,0.45946214947148434,0.011690761276897155,10.791642285218678,0.6001577465493085
170.0,21.492720299993625,0.4596714350468544,0.011686787011994429,10.791112557027585,0.6001694963550505
171.0,21.49663417006227,0.4598807598577268,0.011682812924249716,10.790582804406872,0.6001810156034967
172.0,21.500548015257202,0.46009012381098696,0.011678839013771349,10.790053027446367,0.6001925729452424
173.0,21.50446183491748,0.46029952681339886,0.011674865280400713,10.789523226236007,0.6002049106684578
174.0,21.50837562838147,0.46050896877160347,0.01167089168051916,10.788993400865017,0.600214930852139
175.0,21.512289394986915,0.4607184495921375,0.011666918257244965,10.788463551423561,0.6002262201615585
176.0,21.51620313407088,0.46092796918142104,0.01166294501075548,10.78793367800193,0.6002377708034555
177.0,21.520116844969802,0.46113752744574094,0.011658971941238976,10.787403780690527,0.600248776571055
178.0,21.524030527021573,0.46134712429161046,0.011654999025894643,10.786873859579305,0.6002595102986255
179.0,21.527944179565285,0.4615567596256864,0.011651026244133686,10.786343914757865,0.6002702388937852
180.0,21.531857801935473,0.46176643335392226,0.011647053637564058,10.785813946316964,0.6002817510975106
181.0,21.535771393466,0.4619761453821762,0.011643081206469601,10.78528395434748,0.6002935699880844
182.0,21.53968495349008,0.4621858956161717,0.011639108951139003,10.784753938940414,0.6003052762152923
183.0,21.54359848134026,0.46239568396153247,0.011635136871863622,10.784223900186879,0.6003167814586244
184.0,21.54751197634843,0.46260551032376146,0.01163116496893589,10.783693838178111,0.6003277138341835
185.0,21.551425437845833,0.46281537460823724,0.011627193242646853,10.783163753005466,0.6003380924787568
186.0,21.55533886516303,0.46302527672023946,0.01162322169328446,10.782633644760418,0.6003479422179097
187.0,21.55925225762995,0.4632352165649383,0.011619250321131256,10.782103513534558,0.6003574506438618
188.0,21.563165614575837,0.46344519404736834,0.011615279126462517,10.7815733594196,0.6003673321306406
189.0,21.567078935329313,0.46365520907246277,0.011611308109544192,10.781043182507375,0.6003772258390653
190.0,21.570992219218297,0.4638652615450481,0.011607337270630892,10.780512982889837,0.6003871323289256
191.0,21.57490546557009,0.4640753513698284,0.0116033666064732,10.779982760659088,0.6003973211705411
192.0,21.578818673711318,0.46428547845139545,0.01159939610270846,10.779452515907488,0.6004076296758708
193.0,21.58273184296796,0.464495642694236,0.011595425778121832,10.77892224872734,0.600418830272505
