k,PSNR,SSIM,mse,Log-Gradient,Angle
0.0,20.82835000922366,0.424777493151324,0.0,10.880640298632194,0.5806975340874952
1.0,20.83149961330809,0.42493449642606557,0.009731832552259009,10.880213409197973,0.5979046308017504
2.0,20.83535572933878,0.4251321971542222,0.012101946386819853,10.8796956833302,0.5981159137706641
3.0,20.83925768824787,0.4253331313838,0.012304879098289718,10.879172160313043,0.5981434452681461
4.0,20.843165050806007,0.42553454274598224,0.012332742203498288,10.878647918047914,0.5981691328559362
5.0,20.847073530195097,0.4257360998088729,0.012336889685411075,10.87812349726018,0.5981933956484572
6.0,20.85098235656929,0.4259377377564757,0.01233577191269037,10.877598998825974,0.5982161135390206
7.0,20.8548913269027,0.42613943835167345,0.012332999575913158,10.877074451126807,0.5982316415354393
8.0,20.858800371555326,0.4263411946321507,0.012329564261883716,10.876549864010968,0.5982417418884789
9.0,20.86270946314044,0.42654300374725035,0.012325843849805732,10.876025241477809,0.598254750348793
10.0,20.866618588228178,0.426744864331224,0.012321958791616969,10.875500586070704,0.5982681187877535
11.0,20.870527739514905,0.4269467756704514,0.012317988608422821,10.874975898853952,0.5982814195534558
12.0,20.874436912595566,0.4271487372938876,0.012313962085166401,10.87445118047786,0.5982941689979323
13.0,20.878346104647388,0.42735074887283714,0.012309894838729797,10.873926431467265,0.5983070171020123
14.0,20.88225531395363,0.4275528101854938,0.012305802928875433,10.873401652263016,0.5983198987073292
15.0,20.88616453858578,0.4277549210116219,0.01230168984069401,10.87287684310406,0.5983327759877932
16.0,20.89007377745551,0.42795708122741766,0.012297567516745668,10.872352004187228,0.5983455043450936
17.0,20.8939830296835,0.4281592907162663,0.012293437769182812,10.871827135697403,0.5983578469913011
18.0,20.89789229424928,0.4283615493444513,0.012289295747371492,10.871302237807573,0.598369710117573
19.0,20.901801570339458,0.42856385700056815,0.01228514895767582,10.870777310658271,0.5983810908514121
20.0,20.90571085722906,0.4287662135925281,0.012281000128277646,10.870252354359309,0.5983921460392158
21.0,20.90962015416014,0.428968619023595,0.012276846848617962,10.869727369016017,0.5984031756091334
22.0,20.913529460462804,0.4291710732077139,0.01227269058212345,10.869202354726937,0.5984142840729372
23.0,20.91743877551398,0.4293735760631803,0.012268533594902414,10.868677311586028,0.5984254338328402
24.0,20.9213480986957,0.429576127509183,0.01226437605263266,10.86815223968595,0.5984364955622156
25.0,20.925257429398147,0.4297787274680327,0.012260218266635639,10.8676271391153,0.5984478287004683
26.0,20.92916676694902,0.4299813758519127,0.012256055789532922,10.867102009957831,0.598459213790602
27.0,20.93307611069674,0.43018407257163765,0.01225188887236743,10.866576852316149,0.5984704968913123
28.0,20.936985460054373,0.43038681754851654,0.012247721533381448,10.866051666272606,0.5984818085838789
29.0,20.940894814425857,0.4305896107031199,0.0122435539552547,10.865526451917725,0.5984929939299465
30.0,20.944804173191535,0.43079245195200655,0.012239384632276529,10.86500120935088,0.5985039623570608
31.0,20.94871353576505,0.4309953412163378,0.012235215522531893,10.864475938654822,0.5985147438249016
32.0,20.952622901560296,0.43119827841726877,0.012231046480264579,10.863950639900972,0.5985254522866149
33.0,20.956532269990586,0.43140126347583224,0.012226877678246543,10.863425313170627,0.5985361056274847
34.0,20.96044164045709,0.43160429631118546,0.012222708796160648,10.862899958542176,0.5985466862043868
35.0,20.964351012353877,0.4318073768424167,0.012218539115845199,10.86237457609546,0.5985572597765941
36.0,20.968260385072686,0.43201050498814425,0.012214368185134496,10.861849165916745,0.5985678649312761
37.0,20.972169758020854,0.43221368066850313,0.012210197140784139,10.861323728087509,0.5985783748502359
38.0,20.97607913061061,0.43241690380414277,0.01220602632047432,10.860798262688933,0.5985887326808766
39.0,20.97998850225363,0.43262017431557087,0.012201855729337168,10.860272769802163,0.598598934152481
40.0,20.983897872361034,0.43282349212318866,0.012197685371792341,10.859747249508327,0.5986089097021465
41.0,20.98780724034338,0.4330268571472788,0.01219351525164931,10.859221701888545,0.5986187128574454
42.0,20.99171660561065,0.43323026930800856,0.012189345372193518,10.858696127023947,0.5986285781594698
43.0,20.99562596757226,0.4334337285254173,0.012185175736258623,10.85817052499568,0.5986382309311182
44.0,20.999535325637062,0.43363723471942883,0.012181006346287548,10.857644895884915,0.5986500065361698
45.0,21.003444679211224,0.4338407878096089,0.01217683718197937,10.857119239772278,0.5986611857633896
46.0,21.00735402769622,0.4340443877149427,0.012172668199561913,10.85659355673726,0.5986720924864702
47.0,21.01126337049921,0.4342480343549995,0.01216849946625281,10.856067846861135,0.598683162590821
48.0,21.01517270702676,0.43445172764921897,0.012164330983429008,10.855542110225231,0.5986941130604712
49.0,21.01908203668487,0.4346554675169367,0.012160162752269279,10.85501634691093,0.5987050408185349
50.0,21.022991358878954,0.43485925387736457,0.012155994773778626,10.85449055699967,0.5987162047547345
51.0,21.026900673013834,0.43506308664957977,0.012151827048809672,10.853964740572957,0.5987276871181462
52.0,21.030809978493764,0.43526696575256385,0.0121476595780812,10.85343889771236,0.5987392010496256
53.0,21.0347192747224,0.43547089110515674,0.012143492362194377,10.852913028499517,0.5987507640797284
54.0,21.038628561101955,0.4356748626259544,0.012139325358178273,10.852387133015942,0.5987624516356455
55.0,21.04253783703229,0.43587888023315996,0.01213515847248035,10.851861211342797,0.5987745923841087
56.0,21.04644710191546,0.4360829438452852,0.012130991842330017,10.851335263561934,0.5987867449723369
57.0,21.05035635515291,0.4362870533807104,0.012126825299869495,10.850809289755544,0.598799216583055
58.0,21.05426559614552,0.4364912087577113,0.012122658989965805,10.85028329000565,0.5988116583162543
59.0,21.05817482429393,0.43669540989475547,0.012118492713361255,10.849757264395283,0.5988244146467055
60.0,21.062084038997483,0.4368996567099683,0.012114326582218686,10.849231213007267,0.5988373222559219
61.0,21.065993239654052,0.43710394912101447,0.01211016053769864,10.848705135923844,0.5988502617132906
62.0,21.069902425661414,0.4373082870455245,0.012105994605988983,10.84817903322736,0.5988634336162456
63.0,21.07381159641777,0.43751267040118985,0.012101828939557127,10.847652905000048,0.5988767599891248
64.0,21.07772075132075,0.4377170991055932,0.012097663539005814,10.847126751324225,0.5988903902361961
65.0,21.081629889767385,0.4379215730761852,0.0120934984048978,10.846600572282291,0.5989039635858683
66.0,21.08553901115411,0.4381260922303076,0.012089333537759915,10.846074367956735,0.5989173746146829
67.0,21.089448114876795,0.4383306564851723,0.012085168938086815,10.845548138430134,0.5989305969466528
68.0,21.093357200330694,0.438535265757879,0.01208100460634408,10.845021883785149,0.5989431875410681
69.0,21.097266266910474,0.43873991996541156,0.012076840464737275,10.844495604104065,0.5989526248446027
70.0,21.101175314010227,0.43894461902461407,0.012072676541583798,10.843969299469409,0.5989663237197543
71.0,21.10508434102343,0.43914936285224737,0.012068512891972591,10.84344296996413,0.5989777540851563
72.0,21.108993347341944,0.4393541513648002,0.012064349430605952,10.842916615669408,0.598989169020271
73.0,21.112902332358004,0.43955898447877906,0.012060186234076396,10.842390236668164,0.5990007595973478
74.0,21.116811295460863,0.43976386211040835,0.012056023257668223,10.841863833042877,0.5990125169453483
75.0,21.120720236038437,0.43996878417575963,0.012051860483913455,10.84133740487587,0.5990235910362584
76.0,21.124629153481504,0.4401737505909972,0.012047697986301533,10.840810952250553,0.5990337038887403
77.0,21.128538047180246,0.4403787612721641,0.012043535765403698,10.840284475250428,0.5990437339043705
78.0,21.132446916524245,0.44058381613519165,0.012039373821768918,10.83975797395909,0.5990541222107796
79.0,21.13635576090251,0.440788915095883,0.01203521215168416,10.839231448460264,0.5990646261890024
80.0,21.14026457970347,0.4409940580699274,0.012031050742971703,10.838704898837861,0.5990766158621266
81.0,21.144173372314945,0.4411992449728821,0.012026889596598781,10.838178325175885,0.5990872445107492
82.0,21.148082138124224,0.4414044757201947,0.012022728713550293,10.837651727558427,0.599097610781409
83.0,21.151990876517985,0.4416097502272062,0.012018568094828467,10.837125106069667,0.5991087524987342
84.0,21.155899586882335,0.44181506840912005,0.012014407741452498,10.836598460793875,0.5991201339228743
85.0,21.159808268602802,0.44202043018104614,0.012010247654458225,10.836071791815408,0.5991301622918032
86.0,21.163716921064353,0.44222583545796873,0.012006087834897419,10.835545099218717,0.5991420810870628
87.0,21.167625543651344,0.4424312841547459,0.01200192828383723,10.835018383088338,0.5991541909223241
88.0,21.17153413574757,0.4426367761861448,0.011997769002359502,10.834491643508898,0.599166118970565
89.0,21.175442696736248,0.4428423114667925,0.011993609977807056,10.833964880565166,0.5991781202624668
90.0,21.179351226000005,0.44304788991120453,0.011989451182214582,10.833438094342096,0.5991901279281628
91.0,21.18325972292056,0.4432535114337291,0.011985292640506483,10.83291128492426,0.5992020094129727
92.0,21.18716818687876,0.44345917594853185,0.011981134336146042,10.832384452396004,0.5992139040877217
93.0,21.19107661725554,0.44366488336977006,0.011976976305725617,10.831857596842392,0.5992260248041689
94.0,21.194985013431214,0.4438706336115277,0.011972818550489896,10.831330718348577,0.5992380897387523
95.0,21.19889337478554,0.4440764265877479,0.011968661071690806,10.8308038169998,0.5992507234598745
96.0,21.202801700697687,0.4442822622122466,0.01196450387058639,10.8302768928814,0.5992648664228281
97.0,21.206709990546216,0.4444881403987629,0.011960346948439825,10.829749946078797,0.5992777012376516
98.0,21.210618243709135,0.44469406106087456,0.011956190306518004,10.82922297667751,0.5992896176553707
99.0,21.214526459563828,0.44490002411207347,0.011952033942689334,10.828695984763115,0.5993011211647857
100.0,21.218434637487114,0.44510602946572275,0.011947877857542186,10.828168970421281,0.5993133840751684
101.0,21.222342776855218,0.4453120770350875,0.011943722052392509,10.827641933737759,0.5993266548246121
102.0,21.22625087704376,0.44551816673328254,0.011939566528558774,10.827114874798399,0.5993400011836084
103.0,21.230158937427788,0.44572429847334544,0.011935411287360706,10.826587793689136,0.5993530701579998
104.0,21.23406695738174,0.44593047216816434,0.011931256330117794,10.826060690495998,0.5993659900873305
105.0,21.237974936279596,0.44613668773054366,0.011927101644456138,10.825533565304989,0.599378852920269
106.0,21.241882873494973,0.44634294507315514,0.011922947208417167,10.825006418201998,0.5993920939335612
107.0,21.245790768400564,0.4465492441085628,0.011918793060680544,10.824479249273317,0.59940518661734
108.0,21.249698620368463,0.44675558474921057,0.011914639202582294,10.823952058605338,0.5994180626325732
109.0,21.25360642877017,0.446961966907416,0.011910485635449435,10.823424846284539,0.5994307574863267
110.0,21.257514192976586,0.4471683904954042,0.011906332360598649,10.822897612397494,0.5994434662203816
111.0,21.261421912358003,0.4473748554252541,0.011902179379335194,10.822370357030865,0.5994561258084327
112.0,21.265329586284132,0.44758136160895634,0.011898026692951529,10.82184308027141,0.5994703140227388
113.0,21.26923721412406,0.44778790895837056,0.011893874302725952,10.821315782205986,0.5994828950849936
114.0,21.27314479524629,0.44799449738524766,0.011889722209921334,10.820788462921529,0.5994951347215376
115.0,21.277052329018716,0.4482011268012096,0.011885570415783728,10.820261122505084,0.5995071195925817
116.0,21.280959814808632,0.44840779711776974,0.011881418921540883,10.819733761043778,0.5995191356300892
117.0,21.28486725198273,0.44861450824633536,0.01187726772840111,10.819206378624841,0.5995310641211161
118.0,21.288774639907086,0.4488212600981793,0.011873116837551724,10.81867897533559,0.599542733360047
119.0,21.292681977947183,0.4490280525844761,0.011868966250157867,10.81815155126344,0.5995542650099336
120.0,21.296589265467883,0.4492348856162694,0.011864815967361044,10.8176241064959,0.5995661557104633
121.0,21.300496501833788,0.44944175910475986,0.011860665955830714,10.817096641118095,0.5995778045573833
122.0,21.304403686408687,0.4496486729608593,0.01185651623603325,10.81656915521686,0.5995892211907957
123.0,21.308310818555643,0.44985562709527555,0.011852366820731854,10.816041648879995,0.5996010575001127
124.0,21.31221789763714,0.4500626214185788,0.011848217711076513,10.815514122195404,0.5996130216903239
125.0,21.316124923015032,0.4502696558412574,0.011844068908190198,10.81498657525108,0.5996245737562946
126.0,21.32003189405056,0.4504767302736603,0.01183992041316735,10.814459008135113,0.5996354590838339
127.0,21.323938810104384,0.45068384462602284,0.01183577222607086,10.813931420935688,0.5996456359712868
128.0,21.327845670536515,0.4508909988084662,0.011831624346230838,10.813403813741088,0.5996597530022433
129.0,21.33175247470618,0.45109819273110086,0.011827476751199039,10.812876186639095,0.5996725442450827
130.0,21.33565922197212,0.4513054263038594,0.011823329453911378,10.812348539717886,0.5996845863461865
131.0,21.33956591169253,0.4515126994365195,0.011819182467335423,10.81182087306604,0.5996963920371295
132.0,21.34347254322503,0.4517200120387351,0.011815035792395595,10.811293186772227,0.5997083617462039
133.0,21.347379115926614,0.4519273640200536,0.011810889429980237,10.81076548092522,0.5997201836451397
134.0,21.351285629153544,0.45213475528989755,0.011806743377413166,10.810237755613523,0.5997319753798402
135.0,21.355192082260245,0.45234218575751456,0.01180259759995054,10.809710010921773,0.599743483486429
136.0,21.35909847460192,0.45254965533210106,0.011798452132142692,10.809182246938992,0.599754728825475
137.0,21.363004805533127,0.45275716392273085,0.011794306974946767,10.808654463754296,0.5997669736813334
138.0,21.36691107440783,0.45296471143836053,0.011790162117074994,10.80812666145597,0.5997795286904296
139.0,21.37081728057939,0.4531722977878339,0.01178601755005997,10.807598840131742,0.5997920544215386
140.0,21.374723423400553,0.45337992287988893,0.011781873295283445,10.80707099987103,0.5998045329105638
141.0,21.378629502223422,0.453587586623135,0.011777729353605649,10.806543140763354,0.5998167142412898
142.0,21.382535516399166,0.4537952889261261,0.011773585710177267,10.806015262897805,0.5998291012370814
143.0,21.386441465278846,0.4540030296973952,0.011769442342721042,10.805487366362783,0.5998414268162929
144.0,21.390347348213755,0.45421080884527526,0.011765299277089044,10.80495945124766,0.5998535605888915
145.0,21.39425316455361,0.454418626277933,0.011761156527036862,10.80443151764237,0.5998657880759829
146.0,21.398158913647517,0.45462648190341454,0.01175701409331891,10.803903565636954,0.5998778704850405
147.0,21.402064594843978,0.45483437562963563,0.011752871976649294,10.803375595321542,0.5998901118111856
148.0,21.405970207490856,0.4550423073644218,0.011748730177701228,10.802847606786376,0.5999020781563026
149.0,21.409875750935434,0.4552502770154778,0.011744588697106416,10.802319600121786,0.599913397295163
150.0,21.413781224524357,0.4554582844903772,0.011740447535454512,10.801791575418214,0.5999253603843155
151.0,21.41768662760367,0.45566632969660725,0.011736306691542667,10.801263532766185,0.5999389714496416
152.0,21.421591959518793,0.4558744125415129,0.011732166158195891,10.80073547225627,0.5999526378034018
153.0,21.42549721961501,0.4560825329324727,0.011728025909139277,10.800207393977324,0.5999656704974242
154.0,21.4294024072368,0.45629069077667256,0.01172388595706895,10.799679298019143,0.5999780867269141
155.0,21.433307521726825,0.4564988859810493,0.011719746319434845,10.799151184471917,0.5999897977365242
156.0,21.437212562422182,0.45670711845190676,0.011715606976306069,10.79862305342163,0.6000005985657192
157.0,21.441117528664947,0.4569153880960157,0.011711467925153984,10.798094904958928,0.6000121714234352
158.0,21.445022419796608,0.45712369482002946,0.01170732915747449,10.79756673917349,0.6000250486174901
159.0,21.44892723515803,0.45733203853049065,0.011703190676770633,10.797038556155378,0.6000382855301538
160.0,21.452831974089513,0.45754041913383875,0.0116990524847923,10.796510355995313,0.6000514780678291
161.0,21.456736635930724,0.45774883653640003,0.011694914570217967,10.795982138783698,0.6000644074433085
162.0,21.46064122002076,0.45795729064438917,0.011690776958455428,10.795453904612051,0.6000765077446967
163.0,21.464545725698102,0.4581657813639172,0.011686639649436812,10.794925653571992,0.6000869608158574
164.0,21.46845015230066,0.4583743086009666,0.011682502643110044,10.794397385755257,0.600096409397212
165.0,21.472354499165746,0.4585828722614405,0.011678365903327052,10.793869101253613,0.6001072070023252
166.0,21.476258765630067,0.45879147225111133,0.011674229465941174,10.793340800159012,0.6001185071432041
167.0,21.480162951028802,0.4590001084754775,0.011670093313477603,10.79281248256246,0.6001307206260674
168.0,21.48406705469697,0.4592087808400282,0.01166595745421109,10.792284148555563,0.6001430396501798
169.0,21.487971075969558,0.4594174892502214,0.011661821897964414,10.791755798230616,0.6001551102109889
170.0,21.49187501418095,0.4596262336113939,0.011657686644852302,10.791227431680024,0.6001669009696905
171.0,21.495778868664956,0.45983501382879727,0.011653551695006993,10.790699048996304,0.6001784099888366
172.0,21.499682638754795,0.4600438298075717,0.01164941704857731,10.790170650272078,0.6001898204410386
173.0,21.503586323783104,0.460252681452743,0.011645282705727844,10.78964223560008,0.6002019487206558
174.0,21.507489923081927,0.46046156866923615,0.011641148627515691,10.789113805072418,0.6002128827429627
175.0,21.51139343598274,0.4606704913618666,0.011637014846967839,10.788585358781928,0.600223311431532
176.0,21.515296861816417,0.46087944943534237,0.011632881369519413,10.788056896821663,0.600234990283841
177.0,21.519200199913264,0.461088442794279,0.011628748195400355,10.787528419284783,0.6002460640548076
178.0,21.523103449604374,0.4612974713433715,0.011624615309971364,10.78699992626419,0.6002568353238884
179.0,21.52700661022361,0.46150653498771765,0.011620482676534238,10.78647141785202,0.600267539904646
180.0,21.53090968109958,0.4617156336316059,0.011616350344771143,10.785942894141764,0.6002788142085507
181.0,21.53481266156035,0.4619247671792288,0.011612218315008886,10.785414355227017,0.6002905572762566
182.0,21.538715550933354,0.4621339355346767,0.011608086587579391,10.784885801201487,0.60030227764221
183.0,21.542618348545464,0.4623431386019257,0.011603955162817816,10.78435723215899,0.6003138853737885
184.0,21.546521053722966,0.4625523762848509,0.011599824041060382,10.78382864819346,0.6003249434971931
185.0,21.55042366579156,0.4627616484872283,0.011595693222642575,10.783300049398928,0.6003353799876434
186.0,21.554326184076352,0.46297095511271874,0.01159156270789697,10.782771435869543,0.6003454227549699
187.0,21.558228607901864,0.4631802960648949,0.011587432497151261,10.782242807699568,0.6003548462107803
188.0,21.562130936592048,0.4633896712471972,0.011583302590726107,10.781714164983365,0.6003647073687073
189.0,21.566033169470266,0.463599080562999,0.011579172988933323,10.781185507815414,0.6003746064194879
190.0,21.569935305859282,0.46380852391554167,0.011575043692073773,10.780656836290307,0.6003844363729066
191.0,21.5738373450813,0.4640180012079751,0.011570914700435492,10.780128150502739,0.6003944929788125
192.0,21.57773928645792,0.46422751234334997,0.011566785994354324,10.779599450547707,0.6004046690419043
193.0,21.581641129310185,0.46443705722460654,0.011562657592877576,10.77907073652014,0.600415411928887
