k,PSNR,SSIM,mse,Log-Gradient,Angle
0.0,20.82835000922366,0.424777493151324,0.0,10.880640298632194,0.5806975340874952
1.0,20.831499560822454,0.42493449380948817,0.009731670398290777,10.88021341631212,0.5979046306259335
2.0,20.835355560093465,0.4251321886241419,0.012101585196744162,10.879695706189816,0.5981159138187643
3.0,20.839257337184,0.42533311358663356,0.012304314116106257,10.87917220765051,0.5981434448267526
4.0,20.84316445275883,0.4255345123176981,0.012331972288269854,10.878647998611306,0.5981691310128114
5.0,20.847072619964994,0.42573605338053006,0.012335914619610663,10.878123619804269,0.5981933946145159
6.0,20.85098106893449,0.4259376719552838,0.012334591710931398,10.87759917211055,0.5982161109780452
7.0,20.854889596622684,0.42613934980131396,0.012331614325541784,10.877074683916188,0.5982316373338437
8.0,20.858798133372037,0.4263410799528815,0.012327974076547185,10.876550165073828,0.5982417365591246
9.0,20.86270665177876,0.4265428595559794,0.012324048856344619,10.87602561958711,0.5982547434001674
10.0,20.8666151383962,0.4267446872415148,0.012319959122888205,10.875501050003635,0.5982681092610023
11.0,20.87052358590414,0.4269465622925576,0.01231578440037219,10.874976457391917,0.5982814093509726
12.0,20.874431989881053,0.4271484842347724,0.012311553475415524,10.874451842406446,0.5982941565570946
13.0,20.878340347487764,0.4273504527361476,0.012307281965968512,10.873927205576235,0.5983070029947045
14.0,20.882248656991244,0.4275524675716189,0.012302985933830866,10.873402547346297,0.5983198819148834
15.0,20.886156916446758,0.4277545285176729,0.012298668863443904,10.872877867959728,0.5983327569767489
16.0,20.890065124749825,0.4279566354472501,0.012294342699307287,10.872353167617504,0.5983454825396509
17.0,20.893973281005046,0.4281587882404813,0.012290009253112638,10.871828446508639,0.5983578214215185
18.0,20.89788138417593,0.42836098676038553,0.01228566367397744,10.871303704810249,0.5983696805071533
19.0,20.90178943343314,0.42856323089234927,0.012281313469358037,10.870778942666982,0.5983810572045946
20.0,20.90569742803581,0.4287655205410334,0.01227696136767901,10.870254160192758,0.598392108469349
21.0,20.909605367210172,0.42896785560647954,0.012272604957769918,10.869729357497011,0.5984031346222929
22.0,20.913513250270586,0.429170235999429,0.01226824570375187,10.869204534682382,0.5984142392994782
23.0,20.917421076578254,0.4293726616349613,0.012263885872000994,10.868679691846914,0.5984253853624305
24.0,20.921328845499584,0.4295751324290646,0.012259525628208187,10.868154829087349,0.5984364430666557
25.0,20.925236556409182,0.42977764830086235,0.01225516528373846,10.867629946496363,0.5984477732310229
26.0,20.92914420861922,0.42998020915933965,0.012250800389600547,10.867105044161777,0.5984591538271135
27.0,20.933051801462682,0.43018281491214855,0.012246431198087084,10.866580122190255,0.5984704320685208
28.0,20.93695933433724,0.43038546547742396,0.012242061728261682,10.866055180668207,0.5984817390051757
29.0,20.940866806631515,0.43058816077257506,0.012237692162449158,10.865530219690198,0.5984929200879009
30.0,20.94477421771055,0.43079090071099396,0.012233320993684136,10.865005239359654,0.5985038828635394
31.0,20.948681566972844,0.43099368521070675,0.012228950182662443,10.86448023976335,0.5985146581706022
32.0,20.95258885381709,0.43119651418972865,0.012224579582495737,10.863955220976733,0.5985253602497737
33.0,20.95649607764157,0.4313993875659549,0.012220209366016551,10.86343018308512,0.5985360075139934
34.0,20.960403237832438,0.4316023052554338,0.012215839212824727,10.862905126170912,0.5985465821524493
35.0,20.964310333768786,0.43180526717411266,0.01221146840446935,10.862380050317952,0.5985571489638939
36.0,20.968217364827467,0.43200827323752344,0.012207096488009581,10.861854955616515,0.5985677474749768
37.0,20.972124330401005,0.43221132336268914,0.0122027246022955,10.861329842152063,0.5985782527707105
38.0,20.976031229886864,0.4324144174671582,0.012198353084238164,10.860804710009763,0.5985886044474525
39.0,20.979938062682024,0.4326175554683697,0.012193981938999206,10.860279559274739,0.5985988003628573
40.0,20.983844828182953,0.43282073728364606,0.012189611171027594,10.859754390032085,0.5986087713202634
41.0,20.987751525785647,0.43302396283019196,0.012185240784162199,10.859229202366887,0.5986185622131733
42.0,20.991658154885585,0.433227232025115,0.01218087078171771,10.858703996364232,0.5986284154701306
43.0,20.995564714877734,0.4334305447853988,0.012176501166557102,10.858178772109214,0.598638078212324
44.0,20.99947120515656,0.43363390102792315,0.01217213194115259,10.85765352968695,0.5986498446651568
45.0,21.00337762511392,0.43383730066922405,0.012167763085240238,10.857128269181995,0.5986610092735231
46.0,21.00728397413704,0.4340407436252507,0.012163394554991503,10.856602990677773,0.5986718965592814
47.0,21.011190251618864,0.43424422981254135,0.012159026417730144,10.856077694259477,0.5986829559567606
48.0,21.015096456951866,0.43444775914753625,0.012154658674862527,10.855552380012346,0.5986938988654367
49.0,21.019002589527975,0.43465133154655416,0.012150291327596785,10.855027048021668,0.5987048164175298
50.0,21.0229086487386,0.4348549469258109,0.012145924376967423,10.854501698372784,0.5987159685244942
51.0,21.026814633974645,0.43505860520140666,0.01214155782385657,10.853976331151086,0.598727441707532
52.0,21.030720544626487,0.4352623062893118,0.012137191669012544,10.85345094644203,0.5987389440231653
53.0,21.034626380083985,0.4354660501054277,0.012132825913066142,10.85292554433113,0.5987504948994808
54.0,21.038532139735622,0.4356698365653607,0.012128460512935285,10.852400124903768,0.5987621663753372
55.0,21.042437822967596,0.4358736655843687,0.012124095375271952,10.851874688244973,0.5987742885419051
56.0,21.046343429168346,0.4360775370780048,0.01211973063730174,10.851349234440445,0.5987864307244526
57.0,21.050248957725778,0.4362814509617265,0.012115366130679798,10.850823763576225,0.598798884193145
58.0,21.054154408027298,0.436485407150854,0.012111002001223479,10.850298275738178,0.598811308598448
59.0,21.058059779460145,0.43668940556095337,0.012106638048390364,10.849772771013166,0.598824047756665
60.0,21.061965071410327,0.4368934461072162,0.012102274385970557,10.84924724948784,0.598836937381029
61.0,21.065870283262427,0.43709752870440716,0.012097910953121968,10.848721711248258,0.5988498654657947
62.0,21.06977541440102,0.43730165326724696,0.012093547778521492,10.848196156380578,0.5988630112714982
63.0,21.07368046421117,0.4375058197105632,0.012089185013558847,10.847670584970832,0.5988763107919562
64.0,21.077585432077427,0.4377100279490281,0.01208482265886743,10.847144997105131,0.598889927548189
65.0,21.081490317383818,0.4379142778972304,0.012080460715040727,10.846619392869663,0.5989034903565501
66.0,21.085395119513844,0.43811856946964617,0.012076099182636453,10.846093772350693,0.5989168900619892
67.0,21.089299837850476,0.4383229025806288,0.01207173806218021,10.845568135634574,0.5989301103869247
68.0,21.093204471776183,0.4385272771444371,0.012067377354168666,10.84504248280773,0.5989427188648755
69.0,21.097109020672885,0.4387316930751981,0.012063016978600932,10.844516813956185,0.598952288364925
70.0,21.101013483921996,0.43893615028694755,0.012058656968140333,10.84399112916623,0.598965854736045
71.0,21.104917860904408,0.4391406486935963,0.012054297375829614,10.843465428524555,0.5989772773936682
72.0,21.10882215099943,0.43934518820883683,0.01204993811656943,10.842939712116078,0.5989886748819983
73.0,21.112726353586826,0.4395497687463683,0.012045579266554498,10.842413980027438,0.5990002439624368
74.0,21.116630468043457,0.4397543902196211,0.012041220781630791,10.841888232344838,0.599011992042746
75.0,21.12053449374492,0.4399590525418648,0.012036862643712783,10.841362469154303,0.5990231087304982
76.0,21.124438430069688,0.44016375562649895,0.012032504926705453,10.840836690542947,0.5990332242947575
77.0,21.128342276395777,0.44036849938679,0.012028147631212195,10.840310896597964,0.5990432490667467
78.0,21.132246032100632,0.4405732837359051,0.012023790757814406,10.839785087406637,0.59905358471074
79.0,21.136149696561198,0.4407781085869041,0.012019434303631272,10.83925926305636,0.5990640938152388
80.0,21.14005326915391,0.4409829738527134,0.012015078255722376,10.838733423634714,0.5990757240777917
81.0,21.143956749254688,0.44118787944616916,0.012010722615086109,10.838207569229365,0.5990866905689148
82.0,21.14786013623894,0.441392825279991,0.012006367382738458,10.837681699928057,0.5990970029272958
83.0,21.15176342948157,0.4415978112667953,0.012002012559712826,10.837155815818614,0.5991081121968638
84.0,21.155666628356975,0.44180283731907893,0.01199765814705973,10.836629916988947,0.5991194443606489
85.0,21.159569732239053,0.4420079033492519,0.011993304145846236,10.83610400352704,0.5991298103065348
86.0,21.163472740501152,0.4422130092696069,0.011988950557155589,10.835578075520965,0.5991413226287188
87.0,21.16737565251617,0.44241815499233056,0.01198459738208634,10.835052133058873,0.5991534338416401
88.0,21.171278467656443,0.4426233404294941,0.011980244621751837,10.834526176228994,0.5991653546976603
89.0,21.17518118529382,0.44282856549307753,0.011975892263992515,10.834000205119693,0.59917732845398
90.0,21.17908380479964,0.44303383009493985,0.011971540279861402,10.833474219819514,0.5991893114276902
91.0,21.1829863255444,0.44323913414678273,0.01196718869531879,10.832948220416618,0.5992011836862735
92.0,21.1868887468978,0.4434444775601132,0.011962837492873286,10.832422206998913,0.5992130641011972
93.0,21.190791068229665,0.4436498602464964,0.011958486709679325,10.831896179655029,0.5992251400213006
94.0,21.19469328890932,0.44385528211737796,0.011954136347013701,10.831370138473675,0.5992371789208338
95.0,21.198595408305568,0.44406074308408283,0.011949786406160443,10.830844083543639,0.5992496117728924
96.0,21.202497425786703,0.4442662430578544,0.011945436888409922,10.830318014953793,0.599263806268662
97.0,21.20639934072051,0.44447178194979675,0.011941087795057587,10.829791932793094,0.5992767203112218
98.0,21.210301152474244,0.4446773596709484,0.011936739127402835,10.82926583715058,0.5992886687759709
99.0,21.214202860414638,0.44488297613220434,0.011932390883561843,10.828739728115343,0.5993001746777215
100.0,21.21810446390793,0.4450886312443729,0.011928043063942186,10.828213605776556,0.5993122670660065
101.0,21.222005962319823,0.44529432491815674,0.011923695669892325,10.827687470223468,0.5993254951264027
102.0,21.225907355015508,0.4455000570641376,0.011919348702763377,10.827161321545415,0.5993388334425859
103.0,21.22980864135965,0.44570582759280386,0.011915002163907899,10.826635159831811,0.5993519133609944
104.0,21.2337098207164,0.44591163641453274,0.0119106560546782,10.826108985172159,0.5993648168280633
105.0,21.237610892449503,0.4461174834395963,0.011906310363330345,10.825582797655928,0.5993776259181124
106.0,21.241511855922425,0.44632336857816474,0.011901965066683153,10.825056597372454,0.5993908326181534
107.0,21.24541271049779,0.44652929174030515,0.01189762020410915,10.824530384411478,0.599403927762874
108.0,21.24931345553767,0.4467352528359714,0.011893275776977758,10.824004158862826,0.5994167881909895
109.0,21.253214090403638,0.4469412517750024,0.011888931786649407,10.823477920816405,0.5994294575127236
110.0,21.257114614456725,0.44714728846715385,0.011884588234474362,10.822951670362205,0.5994422056054529
111.0,21.261015027057457,0.44735336282205024,0.011880245121791607,10.822425407590302,0.599454325969449
112.0,21.264915327565802,0.4475594747492269,0.01187590244992729,10.821899132590854,0.599468933555728
113.0,21.268815515341227,0.44776562415809434,0.011871560220193705,10.82137284545411,0.5994815361720125
114.0,21.272715589742663,0.44797181095797195,0.01186721843388776,10.820846546270394,0.5994937902627284
115.0,21.2766155501285,0.44817803505807546,0.011862877092289677,10.820320235130119,0.5995057440328595
116.0,21.280515395856625,0.4483842963674984,0.011858536196661508,10.819793912123785,0.5995177421974841
117.0,21.284415126284365,0.44859059479524005,0.011854195748246065,10.819267577341973,0.5995296602197384
118.0,21.28831474076854,0.4487969302501893,0.011849855748265255,10.818741230875355,0.5995413376636903
119.0,21.292214238665434,0.44900330264113647,0.011845516197918887,10.81821487281468,0.5995528531113736
120.0,21.29611361933079,0.4492097118767447,0.011841177098383426,10.817688503250793,0.5995646602523329
121.0,21.300012882120125,0.4494161578658382,0.011836838418913798,10.81716212227232,0.5995763533086126
122.0,21.30391202638828,0.4496226405169917,0.011832500174998163,10.81663572996923,0.5995876778500712
123.0,21.30781105148943,0.44982915973856136,0.011828162381897742,10.816109326432628,0.5995995303180927
124.0,21.311709956777225,0.45003571543880727,0.011823825040797839,10.81558291175371,0.5996114250886071
125.0,21.315608741604773,0.45024230752586664,0.011819488152856937,10.815056486023755,0.5996230617244733
126.0,21.319507405324654,0.4504489359077864,0.011815151719205117,10.81453004933413,0.5996340124003384
127.0,21.323405947288904,0.45065560049249176,0.01181081574018144,10.814003601776287,0.599644170539033
128.0,21.327304366849035,0.45086230118782006,0.011806480214914884,10.813477143441766,0.599657809246318
129.0,21.331202663355832,0.4510690379015838,0.011802145122319007,10.812950674421636,0.5996707765103845
130.0,21.33510083615964,0.45127581054144583,0.011797810472688278,10.81242419480728,0.599682872312974
131.0,21.338998884610383,0.45148261901492875,0.011793476280379892,10.811897704690502,0.5996946557526862
132.0,21.34289680805745,0.4516894632294184,0.011789142546354959,10.811371204163198,0.5997065837537839
133.0,21.346794605849688,0.4518963430922273,0.011784809271538542,10.810844693317353,0.59971839302929
134.0,21.3506922773354,0.4521032585105404,0.011780476456577413,10.810318172245008,0.5997301812920109
135.0,21.354589821860937,0.45231020939138783,0.011776144060837516,10.809791641033673,0.5997416861912762
136.0,21.358487238773556,0.4525171956417353,0.01177181212153858,10.809265099775557,0.5997529643499447
137.0,21.36238452742001,0.45272421716847216,0.01176748063967349,10.80873854856295,0.599764951422252
138.0,21.36628168714649,0.45293127387834614,0.011763149606283626,10.80821198748748,0.5997774466944936
139.0,21.37017871729868,0.45313836567803234,0.011758819008286504,10.807685416639854,0.5997899441036086
140.0,21.374075617221706,0.45334549247407147,0.011754488869459467,10.807158836112642,0.5998024471327107
141.0,21.377972386260172,0.45355265417294227,0.011750159190699338,10.8066322459985,0.5998146591185373
142.0,21.38186902375786,0.4537598506809946,0.011745829960864866,10.806105646389769,0.5998269388857175
143.0,21.385765529058254,0.4539670819046506,0.011741501152083172,10.805579037377909,0.5998392715765523
144.0,21.38966190150548,0.4541743477501176,0.011737172790376805,10.805052419055338,0.5998513962092024
145.0,21.39355814044204,0.4543816481234311,0.011732844891367989,10.80452579151509,0.5998635778724789
146.0,21.3974542452099,0.45458898293051714,0.011728517455848927,10.803999154850292,0.5998756579637096
147.0,21.4013502151505,0.4547963520772109,0.011724190484571823,10.803472509154158,0.5998878468713499
148.0,21.405246049604727,0.45500375546923477,0.011719863978248035,10.802945854519995,0.5998998605526085
149.0,21.409141747912965,0.4552111930122132,0.011715537937547699,10.802419191041201,0.5999113430346026
150.0,21.413037309415024,0.4554186646116484,0.011711212363099173,10.801892518811263,0.5999227195553792
151.0,21.416932733450214,0.45562617017297774,0.011706887255069333,10.801365837923758,0.5999362631767832
152.0,21.420828019357284,0.45583370960148456,0.011702562605354886,10.800839148472287,0.5999499370174649
153.0,21.42472316647484,0.45604128280248885,0.011698238392385745,10.80031245054908,0.5999630905563555
154.0,21.42861817414094,0.4562488896811823,0.011693914618783394,10.7997857442466,0.5999755746334327
155.0,21.432513041692538,0.4564565301425343,0.01168959130565066,10.799259029658579,0.5999874287142044
156.0,21.436407768459723,0.45666420409079284,0.01168526844008105,10.79873230687358,0.5999982936720616
157.0,21.440302353778314,0.4568719114307213,0.011680946010149965,10.79820557598514,0.6000095922699392
158.0,21.444196796983597,0.45707965206699447,0.011676624015421548,10.797678837086185,0.6000220904519761
159.0,21.448091097410344,0.45728742590417887,0.011672302451290487,10.797152090269467,0.6000352974948574
160.0,21.45198525439281,0.45749523284675053,0.01166798132804066,10.796625335628832,0.6000484284903186
161.0,21.455879267264727,0.4577030727990723,0.011663660625552503,10.796098573257458,0.6000614056389003
162.0,21.459773135359313,0.45791094566542584,0.01165934037370206,10.795571803249791,0.6000735888890026
163.0,21.463666858009272,0.45811885134997765,0.011655020572458784,10.795045025700379,0.600084901091683
164.0,21.467560434546797,0.4583267897568046,0.011650701221807754,10.794518240703864,0.6000937419729311
165.0,21.47145386430358,0.45853476078988403,0.011646382290160495,10.793991448354928,0.6001044784565633
166.0,21.475347146610787,0.4587427643530899,0.011642063804338335,10.793464648748406,0.6001156256989383
167.0,21.4792402807983,0.45895080035007957,0.011637745754867816,10.792937841978395,0.6001276867133589
168.0,21.483133266195594,0.4591588686844023,0.011633428143171922,10.792411028139163,0.6001400792016417
169.0,21.487026102132326,0.4593669692596665,0.011629110982582814,10.791884207325872,0.6001521032867267
170.0,21.49091878793768,0.4595751019793493,0.01162479427325282,10.791357379633775,0.600163947404846
171.0,21.494811322940308,0.45978326674686004,0.01162047801535188,10.79083054515823,0.6001754617817984
172.0,21.49870370646838,0.459991463465496,0.011616162209066624,10.790303703994692,0.600186826927536
173.0,21.502595937849556,0.4601996920384555,0.011611846854599782,10.789776856238717,0.6001986234629216
174.0,21.506488016410987,0.4604079523688524,0.01160753191930493,10.78925000198534,0.6002105776567613
175.0,21.510379941479336,0.460616244359706,0.01160321742371379,10.788723141330085,0.6002199284362523
176.0,21.514271712380733,0.46082456791392773,0.011598903379577198,10.78819627436879,0.6002317996811501
177.0,21.518163328440856,0.4610329229343472,0.011594589787164277,10.787669401197395,0.6002429751641464
178.0,21.522054788985358,0.4612413093237719,0.011590276641114759,10.7871425219118,0.6002537801946335
179.0,21.52594609334445,0.4614497269856445,0.011585963886389888,10.786615636606676,0.6002645259145446
180.0,21.529837240842355,0.46165817582253443,0.011581651581851853,10.78608874537826,0.6002755835470007
181.0,21.5337282308028,0.4618666557368785,0.011577339727867971,10.785561848322883,0.6002871334836335
182.0,21.537619062549002,0.46207516663104203,0.011573028324811049,10.785034945536985,0.6002988476753619
183.0,21.541509735403675,0.4622837084072928,0.011568717373057395,10.784508037117096,0.6003105518239439
184.0,21.545400248689035,0.46249228096779693,0.011564406872984887,10.783981123159851,0.6003217516126557
185.0,21.54929060172679,0.46270088421464056,0.011560096824970936,10.783454203761984,0.6003323261060498
186.0,21.553180793838152,0.46290951804980757,0.011555787229390534,10.782927279020326,0.6003424773399751
187.0,21.557070824343832,0.4631181823751858,0.011551478086614095,10.782400349031809,0.6003519833568695
188.0,21.560960692564045,0.46332687709257286,0.011547169397005567,10.781873413893464,0.6003617469786281
189.0,21.56485039781849,0.4635356021036879,0.01154286116092034,10.781346473702424,0.6003716312084807
190.0,21.568739939426376,0.46374435731013586,0.011538553378703242,10.78081952855592,0.6003814376456298
191.0,21.57262931670642,0.46395314261343984,0.011534246050686902,10.780292578551279,0.6003913173633474
192.0,21.576518528976834,0.4641619579150365,0.01152993916308329,10.779765623786064,0.6004013815758755
193.0,21.580407575555334,0.4643708031162586,0.011525632723311363,10.779238664357866,0.6004117292715732
