k,PSNR,SSIM,mse,Log-Gradient,Angle
0.0,20.82835000922366,0.424777493151324,0.0,10.880640298632194,0.5806975340874952
1.0,20.831499700788033,0.424934500787236,0.009732102820881208,10.880213397340533,0.5979046310947925
2.0,20.83535601143074,0.42513221137184054,0.012102548408994752,10.87969564522862,0.5981159136897682
3.0,20.839258273396748,0.42533316104789165,0.012305820815805668,10.879172081411538,0.598143446002602
4.0,20.843166047638068,0.4255345934641887,0.012334025533092631,10.878647783763888,0.5981691359229532
5.0,20.847075047399525,0.4257361771972918,0.012338515004803761,10.878123292999234,0.5981933973703727
6.0,20.85098450287704,0.42593784743786184,0.012337739212694593,10.877598709984692,0.5982161178071539
7.0,20.854894211080826,0.4261395859549229,0.012335308726110073,10.877074063093568,0.5982316485343218
8.0,20.858804102405003,0.4263413857921032,0.012332215088006722,10.876549362166234,0.5982417507681638
9.0,20.862714149496128,0.4265432441046125,0.012328836155585643,10.876024611194243,0.5982547619306042
10.0,20.86662433895715,0.4267451595325042,0.012325292370742659,10.875499812713262,0.5982681346585846
11.0,20.87053466351699,0.426947131367935,0.012321663249420549,10.87497496777992,0.5982814365592922
12.0,20.874445118802942,0.4271491591456244,0.012317977573754035,10.874450077036883,0.5982941897356329
13.0,20.878355702024404,0.42735124254261153,0.012314250958830028,10.873925141001358,0.598307040617844
14.0,20.88226641149671,0.42755338134280924,0.012310499461000397,10.87340016010661,0.5983199267026581
15.0,20.886177245323285,0.42775557533169883,0.012306726566422607,10.872875134583998,0.5983328076778431
16.0,20.890088202447586,0.4279578243911668,0.012302944214409275,10.87235006462279,0.5983455406925254
17.0,20.893999282022033,0.42816012841029555,0.012299154217865352,10.87182495040031,0.5983578897412448
18.0,20.897910483057764,0.42836248726102344,0.012295351726555503,10.871299792082002,0.5983697595059644
19.0,20.901821804772865,0.4285649008376063,0.012291544245008302,10.870774589800877,0.5983811469382826
20.0,20.90573324647378,0.42876736905360846,0.012287734500985624,10.870249343659227,0.5983922087048026
21.0,20.909644807433843,0.428969891817915,0.012283920084931885,10.869724053754874,0.5984032439357332
22.0,20.91355648701439,0.4291724690501027,0.012280102459100961,10.869198720178865,0.5984143587131192
23.0,20.917468284623418,0.4293751006740745,0.012276283889139539,10.868673343017674,0.5984255146405485
24.0,20.921380199673983,0.4295777866146106,0.012272464540687806,10.868147922356481,0.5984365830762676
25.0,20.925292231587175,0.42978052679961065,0.012268644724979188,10.867622458276422,0.5984479212326493
26.0,20.92920437972151,0.42998332114683374,0.012264819997306964,10.867096950853792,0.5984593137605565
27.0,20.93311664345611,0.4301861695726676,0.01226099060661612,10.866571400183751,0.5984706049519112
28.0,20.93702902223464,0.43038907200396204,0.012257160569764744,10.866045806341223,0.5984819245714766
29.0,20.940941515491545,0.43059202836681504,0.012253330070008362,10.865520169409306,0.5984931170213071
30.0,20.9448541226376,0.43079503858332857,0.012249497603711672,10.864994489479942,0.5985040949300493
31.0,20.948766843116754,0.43099810258016946,0.012245665124592941,10.864468766628502,0.5985148866558376
32.0,20.952679676373084,0.4312012202839932,0.012241832488766861,10.863943000919008,0.5985256058428231
33.0,20.956592621850028,0.4314043916213334,0.012237999868888813,10.863417192425382,0.5985362693409996
34.0,20.960505678978784,0.43160761651680596,0.012234166944764202,10.862891341218642,0.5985468596555944
35.0,20.964418847183317,0.43181089489497726,0.012230332998697411,10.862365447371266,0.5985574446287502
36.0,20.96833212588521,0.4320142266799199,0.01222649757979853,10.861839510962163,0.5985680607444424
37.0,20.972245514521486,0.4322176117972136,0.01222266182131774,10.86131353206548,0.5985785783842806
38.0,20.976159012533987,0.4324210501729115,0.012218826062200781,10.860787510755074,0.5985889464343309
39.0,20.98007261936391,0.43262454173295833,0.012214990307514986,10.860261447104765,0.5985991571563115
40.0,20.983986334451767,0.4328280864031573,0.012211154561615126,10.85973534118838,0.5986091406066106
41.0,20.987900157237437,0.4330316841091814,0.012207318828245986,10.859209193079739,0.5986189639429099
42.0,20.9918140871601,0.43323533477657805,0.01220348311062831,10.85868300285269,0.598628849244003
43.0,20.995728123658296,0.4334390383307443,0.012199647411531036,10.858156770581104,0.5986384857236854
44.0,20.999642266169857,0.4336427946969634,0.012195811733332465,10.857630496338887,0.5986502762153088
45.0,21.003556514129865,0.43384660380013823,0.012191976055654074,10.857104180199412,0.5986614798628723
46.0,21.007470866968593,0.43405046556459226,0.012188140334801584,10.85657782223493,0.5986724191487736
47.0,21.01138532412189,0.43425437991519283,0.012184304637799875,10.856051422519487,0.5986835070409727
48.0,21.015299885024923,0.43445834677670175,0.012180468965960997,10.855524981127184,0.5986944700887324
49.0,21.01921454911219,0.4346623660737327,0.012176633320398643,10.854998498132195,0.5987054148496537
50.0,21.023129315817467,0.43486643773076894,0.012172797702052781,10.854471973608764,0.5987165985415285
51.0,21.027044184573885,0.43507056167217373,0.01216896211171083,10.853945407631207,0.5987280963011626
52.0,21.03095915481385,0.4352747378221549,0.01216512655002626,10.853418800273918,0.5987396298346608
53.0,21.034874225969112,0.4354789661048044,0.012161291017534851,10.852892151611371,0.5987512129533191
54.0,21.03878939746986,0.43568324644394835,0.012157455471434575,10.852365461717929,0.5987629271466975
55.0,21.04270466874381,0.4358875787629865,0.012153619817816387,10.85183873066761,0.598775098682656
56.0,21.046620039220777,0.436091962985637,0.01214978419389966,10.851311958535135,0.5987872765826853
57.0,21.050535508329858,0.43629639903547196,0.01214594843262197,10.850785145395573,0.5987997710487086
58.0,21.05445107549949,0.4365008868359317,0.012142112677251094,10.850258291323845,0.598812242076099
59.0,21.05836674015776,0.4367054263106535,0.012138276730652191,10.849731396395871,0.5988250263438375
60.0,21.06228250173134,0.43691001738289487,0.012134440702263336,10.849204460687401,0.5988379641591569
61.0,21.06619835964535,0.4371146599754539,0.012130604536562582,10.848677484273596,0.5988509231462399
62.0,21.07011431332468,0.43731935401109356,0.012126768255577647,10.848150467229749,0.598864138219338
63.0,21.07403036219455,0.43752409941260995,0.012122932013553812,10.847623409631035,0.5988775086569181
64.0,21.0779465056795,0.4377288961026702,0.012119095811026373,10.847096311552736,0.598891162625773
65.0,21.08186274320337,0.4379337440038018,0.012115259648490612,10.846569173070225,0.5989047521908692
66.0,21.0857790741893,0.4381386430384209,0.012111423526405624,10.846041994258977,0.5989181820563519
67.0,21.089695498059733,0.43834359312878995,0.012107587445198178,10.845514775194562,0.5989314058391767
68.0,21.093612014236413,0.4385485941970449,0.012103751405265775,10.844987515952656,0.5989439675356512
69.0,21.097528622140377,0.4387536461651884,0.012099915332473283,10.844460216608578,0.5989537771276704
70.0,21.10144532119198,0.43895874895509407,0.012096079247881827,10.843932877237872,0.5989671037387929
71.0,21.105362110810873,0.4391639024884923,0.012092243209972785,10.843405497916532,0.5989785491623112
72.0,21.10927899041493,0.43936910668688317,0.012088407133101711,10.842878078718778,0.5989899966052248
73.0,21.11319595942235,0.4395743614717185,0.012084571094506806,10.842350619720614,0.5990016207127493
74.0,21.117113017248187,0.4397796667641949,0.012080735048520405,10.84182312099759,0.5990133889210649
75.0,21.121030163306095,0.43998502248532284,0.01207689897868688,10.841295582625127,0.5990243902721829
76.0,21.12494739701246,0.4401904285561855,0.012073062957786975,10.84076800467974,0.5990345031627826
77.0,21.12886471778296,0.440395884897756,0.01206922698632171,10.840240387238048,0.599044542551688
78.0,21.132782125032573,0.4406013914308527,0.012065391064769651,10.839712730376775,0.599055017945169
79.0,21.136699618175584,0.44080694807617204,0.012061555188013783,10.839185034172797,0.5990655106087336
80.0,21.14061719662558,0.4410125547542574,0.012057719345131215,10.838657298703179,0.5990780561021738
81.0,21.144534859795453,0.4412182113855439,0.012053883537020867,10.83812952404509,0.5990881715073798
82.0,21.14845260709742,0.4414239178903165,0.012050047764599066,10.8376017102758,0.5990986446849392
83.0,21.152370437942988,0.4416296741887356,0.012046212028799474,10.837073857472678,0.5991098290091398
84.0,21.156288351743004,0.44183548020083524,0.012042376330572573,10.8365459657132,0.5991213029851493
85.0,21.160206347907607,0.44204133584651945,0.012038540670885273,10.836018035074938,0.5991308682181585
86.0,21.164124425846225,0.44224724104555196,0.012034705050720362,10.835490065635568,0.5991433396599094
87.0,21.168042584967633,0.44245319571756986,0.012030869471075867,10.83496205747287,0.599155468585696
88.0,21.171960824679886,0.4426591997820874,0.012027033932964386,10.834434010664724,0.5991673965043041
89.0,21.17587914439035,0.44286525315848585,0.012023198422885486,10.833905925289168,0.5991794389514162
90.0,21.1797975435057,0.4430713557660097,0.012019362914487394,10.833377801424431,0.5991914859282429
91.0,21.18371602143157,0.4432775075237058,0.01201552743095651,10.832849639148364,0.5992033876588045
92.0,21.187634577572645,0.4434837083504428,0.012011691957325571,10.83232143853863,0.5992153483535508
93.0,21.191553211333535,0.44368995816507883,0.012007856529235854,10.831793199673609,0.5992274961736447
94.0,21.195471922118166,0.44389625688635154,0.012004021147861676,10.831264922631785,0.5992395958196352
95.0,21.19939070932976,0.44410260443285726,0.01200018581438447,10.830736607491746,0.5992525899390535
96.0,21.203309572370834,0.444309000723063,0.011996350529991654,10.830208254332181,0.5992666111244712
97.0,21.20722851064322,0.4445154456753188,0.01199251529587551,10.829679863231885,0.5992793237524028
98.0,21.211147523548007,0.44472193920782715,0.011988680113232,10.829151434269754,0.5992912012131688
99.0,21.21506661048562,0.4449284812386649,0.011984844979499516,10.828622967524762,0.5993026982901368
100.0,21.218985770855767,0.4451350716857838,0.01198100989555087,10.828094463075983,0.5993152391225901
101.0,21.222905004057427,0.4453417104669886,0.011977174862630616,10.827565921002591,0.5993285903435149
102.0,21.226824309488915,0.4455483974999826,0.011973339881985788,10.827037341383871,0.5993419427724244
103.0,21.23074368654779,0.44575513270230505,0.011969504954864492,10.826508724299208,0.599354998842014
104.0,21.234663134630942,0.445961915991389,0.011965670082514342,10.82598006982809,0.5993679406594113
105.0,21.238582653134657,0.44616874728452066,0.01196183525149585,10.825451378049985,0.5993809229582813
106.0,21.242502241454734,0.4463756264988857,0.01195800044186783,10.824922649044282,0.5993941974792129
107.0,21.246421898985943,0.4465825535514935,0.011954165691139667,10.824393882890776,0.5994072821693857
108.0,21.25034162512233,0.44678952835926894,0.011950331000574611,10.82386507966937,0.5994201807912535
109.0,21.254261419257237,0.4469965508389606,0.011946496371426698,10.823336239460074,0.5994329299954874
110.0,21.25818128078327,0.4472036209072214,0.011942661804939537,10.822807362343003,0.5994455213315883
111.0,21.26210120909232,0.44741073848055546,0.011938827302344947,10.822278448398377,0.5994590331884796
112.0,21.266021203575587,0.4476179034753365,0.011934992864861826,10.821749497706525,0.5994725972396678
113.0,21.269941263623522,0.44782511580780754,0.011931158493694605,10.821220510347883,0.5994851557254387
114.0,21.27386138862585,0.4480323753940869,0.011927324190032116,10.82069148640299,0.5994973809782381
115.0,21.2777815779716,0.4482396821501447,0.01192348995504601,10.8201624259525,0.5995094207217345
116.0,21.281701831049055,0.4484470359918338,0.011919655789889582,10.819633329077167,0.5995214490935197
117.0,21.285622147245782,0.44865443683487677,0.011915821695696284,10.819104195857856,0.5995333982991933
118.0,21.289542525948622,0.44886188459484533,0.01191198767357839,10.81857502637554,0.5995450616539805
119.0,21.293462966543693,0.44906937918720496,0.011908153724625621,10.818045820711301,0.5995566654056628
120.0,21.29738346841638,0.44927692052727,0.011904319849903984,10.817516578946329,0.5995686348184458
121.0,21.301304030951698,0.4494845085305288,0.011900486011791602,10.816987301159136,0.5995801952674195
122.0,21.305224653533678,0.44969214311209954,0.011896652238963884,10.816457987430567,0.5995917864848418
123.0,21.30914533554554,0.4498998241869066,0.011892818540038244,10.815928637842152,0.5996036355602105
124.0,21.31306607636978,0.450107551669744,0.011888984916088296,10.815399252475526,0.5996156553494192
125.0,21.31698687538816,0.45031532547527986,0.011885151368160164,10.814869831412434,0.5996270855961355
126.0,21.320907731981706,0.4505231455180309,0.01188131789727123,10.814340374734735,0.5996378240317045
127.0,21.32482864553073,0.4507310117124062,0.011877484503006368,10.813810882524395,0.5996487723225706
128.0,21.328749615414782,0.4509389239726656,0.011873651185013427,10.81328135486349,0.5996628851949175
129.0,21.332670641012477,0.4511468822130411,0.01186981791855768,10.812751791833554,0.5996754673921935
130.0,21.336591721701854,0.4513548863475924,0.011865984720957607,10.812222193516645,0.5996874604074923
131.0,21.34051285686028,0.45156293629016736,0.011862151602848101,10.811692559995176,0.5996993287410063
132.0,21.34443404586441,0.4517710319545138,0.01185831856507481,10.811162891351675,0.5997113233231858
133.0,21.348355288090136,0.4519791732542305,0.01185448560844694,10.81063318766878,0.599723205322252
134.0,21.35227658291236,0.45218736010277727,0.011850652724771647,10.810103449028322,0.5997349586954173
135.0,21.356197929704326,0.4523955924134411,0.011846819889027449,10.809573675509363,0.5997464657398786
136.0,21.360119327839758,0.4526038700994199,0.011842987131335586,10.809043867194836,0.5997578352723237
137.0,21.364040776691645,0.45281219307379433,0.011839154452575584,10.808514024167788,0.5997703728165238
138.0,21.367962275632237,0.4530205612494986,0.011835321837599694,10.80798414651014,0.5997829867117871
139.0,21.371883824033038,0.4532289745393398,0.01183148928553478,10.807454234303872,0.5997955519267034
140.0,21.375805421264822,0.45343743285599514,0.011827656813791892,10.806924287632372,0.5998079942621949
141.0,21.37972706669762,0.4536459361119964,0.011823824423151991,10.806394306579147,0.5998201432585945
142.0,21.3836487597002,0.45385448421983393,0.011819992092608055,10.805864291227074,0.5998326894842464
143.0,21.38757049964167,0.45406307709193844,0.01181615980914488,10.805334241658676,0.5998450035058777
144.0,21.3914922858906,0.4542717146405053,0.011812327598282924,10.804804157957456,0.5998572084176675
145.0,21.395414117814113,0.45448039677754876,0.011808495470683677,10.804274040207398,0.5998694537612256
146.0,21.399335994778582,0.45468912341497464,0.011804663427020351,10.8037438884926,0.5998815957941984
147.0,21.403257916149634,0.45489789446451817,0.011800831467925469,10.803213702897272,0.5998938594356753
148.0,21.407179881292162,0.4551067098378134,0.011796999593990358,10.802683483505744,0.5999057439021295
149.0,21.41110188957031,0.45531556944636026,0.011793167805764438,10.802153230402457,0.5999167107325957
150.0,21.415023940347474,0.45552447320151646,0.01178933610375479,10.80162294367197,0.5999296566868296
151.0,21.41894603298632,0.4557334210145055,0.011785504484078595,10.801092623398937,0.5999435182529985
152.0,21.422868166848758,0.4559424127964422,0.011781672941852048,10.800562269668067,0.5999570792568033
153.0,21.426790341296595,0.4561514484584479,0.01177784144260282,10.800031882561818,0.5999699460864651
154.0,21.430712555690366,0.45636052791138565,0.011774010015708578,10.799501462164734,0.5999822397367439
155.0,21.43463480938764,0.45656965106575725,0.011770178672750379,10.7989710085603,0.5999936127382818
156.0,21.43855710174259,0.4567788178316568,0.011766347381723923,10.798440521829408,0.6000046682771939
157.0,21.442479432113114,0.4569880281194985,0.011762516155853595,10.797910002057092,0.6000165706442374
158.0,21.446401799856403,0.45719728183958325,0.011758684973258974,10.797379449326817,0.6000299791253202
159.0,21.45032420432891,0.45740657890206776,0.011754853850849033,10.796848863723365,0.6000432808597523
160.0,21.45424664488636,0.4576159192170058,0.01175102277621693,10.796318245331445,0.6000565575877767
161.0,21.458169120883728,0.4578253026943,0.011747191752605265,10.79578759423604,0.6000691803551061
162.0,21.462091631675285,0.4580347292437339,0.011743360797996953,10.79525691052298,0.6000815134023946
163.0,21.46601417661458,0.4582441987749488,0.011739529912243274,10.794726194278208,0.600090559692826
164.0,21.469936755054402,0.45845371119750183,0.011735699087881635,10.79419544558779,0.6001008008081846
165.0,21.47385936634685,0.4586632664207752,0.011731868303183129,10.793664664537864,0.6001117112773205
166.0,21.477782009843295,0.4588728643540508,0.011728037586950752,10.79313385121476,0.6001232898378783
167.0,21.48170468489308,0.4590825049062639,0.011724206915776348,10.792603005703528,0.6001357391781862
168.0,21.485627390845934,0.4592921879864038,0.011720376309248794,10.792072128090524,0.6001479556257209
169.0,21.489550127051082,0.45950191350336533,0.011716545771366499,10.791541218462465,0.6001600757907386
170.0,21.493472892857007,0.4597116813659337,0.011712715302162743,10.791010276906194,0.6001718060038898
171.0,21.497395687611508,0.45992149148275624,0.011708884901688065,10.790479303508686,0.6001833397507587
172.0,21.501318510661637,0.46013134376235415,0.01170505457000929,10.789948298357038,0.6001950509060258
173.0,21.505241361353725,0.4603412381131429,0.011701224302048039,10.789417261538372,0.6002075029623519
174.0,21.5091642390334,0.4605511744433954,0.011697394063915853,10.788886193139291,0.6002169423041867
175.0,21.513087143045556,0.4607611526612536,0.011693563893793939,10.78835509324726,0.6002287633101354
176.0,21.517010072734376,0.46097117267476345,0.011689733791817165,10.787823961949865,0.6002402182931182
177.0,21.520933027443316,0.46118123439181796,0.011685903758131303,10.787292799334823,0.6002512028723016
178.0,21.52485600651795,0.46139133772062185,0.011682073762701656,10.786761605489225,0.6002618660166429
179.0,21.528779009303605,0.46160148256932093,0.011678243799200759,10.786230380500175,0.6002727676422471
180.0,21.53270203514168,0.4618116688454563,0.011674413902080289,10.785699124455764,0.6002843713694564
181.0,21.536625083372805,0.4620218964564447,0.011670584071580259,10.785167837444213,0.6002962300911943
182.0,21.540548153336925,0.4622321653095802,0.011666754307945238,10.784636519553867,0.6003079185691368
183.0,21.544471244373234,0.46244247531203325,0.011662924611422347,10.7841051708732,0.6003193370997411
184.0,21.548394355820225,0.4626528263708558,0.011659094982259192,10.783573791490815,0.600330152131175
185.0,21.552317487015642,0.46286321839296685,0.011655265420701872,10.783042381495436,0.6003404938345386
186.0,21.556240637296533,0.4630736512851721,0.011651435926992934,10.78251094097592,0.6003501311766059
187.0,21.560163805999196,0.4632841249541486,0.011647606501369328,10.781979470021248,0.6003597756752147
188.0,21.564086992459227,0.463494639306447,0.011643777144060197,10.78144796872053,0.6003696740720047
189.0,21.568010196011485,0.46370519424851714,0.011639947855285146,10.780916437163,0.6003795471493764
190.0,21.571933415990113,0.4639157896866577,0.011636118635251989,10.780384875438028,0.6003895734004631
191.0,21.57585665172853,0.4641264255270647,0.011632289476116423,10.779853283635177,0.600399854144594
192.0,21.57977990255943,0.4643371016758056,0.011628460372572848,10.779321661844193,0.6004103614641189
193.0,21.58370316781479,0.4645478180388378,0.011624631338801412,10.77879001015482,0.6004216059914115
