k,PSNR,SSIM,mse,Log-Gradient,Angle
0.0,20.82835000922366,0.424777493151324,0.0,10.880640298632194,0.5806975340874952
1.0,20.831499770775483,0.42493450427634016,0.009732319046587695,10.88021338785411,0.5979046313292401
2.0,20.835356237119086,0.4251322227466809,0.012103030061581563,10.879695614745359,0.598115913623548
3.0,20.839258741554055,0.4253331847810975,0.012306574262315472,10.879172018285177,0.5981434465894717
4.0,20.84316684518182,0.42553463404271913,0.012335052320576452,10.878647676326134,0.5981691383713831
5.0,20.847076261301922,0.42573623911509184,0.012339815449099428,10.87812312957176,0.5981933987463162
6.0,20.85098622014805,0.4259379351944339,0.01233931332010978,10.877598478881373,0.5982161212211644
7.0,20.85489651876369,0.42613970405491547,0.012337156405958283,10.877073752621122,0.598231654129911
8.0,20.858807087574615,0.42634153874513814,0.012334336214512562,10.876548960624461,0.5982417578695108
9.0,20.862717899258403,0.42654343642523385,0.012331230585360245,10.876024106876114,0.598254771196799
10.0,20.866628940448635,0.42674539574012255,0.012327959952351477,10.875499193904982,0.5982681473490196
11.0,20.870540203904678,0.42694741598683805,0.012324603827286576,10.874974222760974,0.5982814501654844
12.0,20.874451685284075,0.427149496704911,0.012321190990040852,10.874449194080047,0.5982942063284964
13.0,20.878363381826404,0.42735163757620537,0.01231773705425252,10.873924108372705,0.5983070594381498
14.0,20.88227529187703,0.4275538383894631,0.012314258073532229,10.873398966065555,0.5983199491067255
15.0,20.886187413569345,0.42775609893496164,0.012310757534877948,10.872873767383282,0.5983328330344276
16.0,20.890099745876665,0.42795841909936566,0.012307247374991689,10.872348512508513,0.5983455697750457
17.0,20.89401228798121,0.42816079877653657,0.01230372940736727,10.87182320161192,0.598357923970781
18.0,20.897925038923827,0.42836323784319275,0.012300198782075278,10.871297834852317,0.5983697990333045
19.0,20.90183799795223,0.428565736198356,0.012296663002162951,10.870772412356093,0.5983811918157395
20.0,20.905751164402414,0.4287682937603258,0.012293124795043329,10.870246934218923,0.5983922588739438
21.0,20.909664537577207,0.4289709104427482,0.012289581751950227,10.869721400532018,0.5984032986106831
22.0,20.913578116867324,0.4291735861699129,0.012286035334186431,10.869195811379825,0.5984144184412421
23.0,20.917491901710115,0.42937632087046923,0.012282487807016311,10.868670166842225,0.598425579304419
24.0,20.92140589154788,0.42957911447390407,0.012278939336036875,10.868144466997812,0.5984366531068198
25.0,20.925320085830904,0.4297819669128322,0.012275390232397992,10.867618711921141,0.5984479953069931
26.0,20.92923448394683,0.4299848781097055,0.012271836053516522,10.867092901681929,0.598459393762392
27.0,20.933149085303782,0.43018784798559406,0.012268277046646287,10.866567036368778,0.5984706914673118
28.0,20.937063889374397,0.4303908764720357,0.012264717227525307,10.866041116050054,0.5984820173821405
29.0,20.940978895622,0.43059396349981044,0.012261156779856246,10.865515140802305,0.5984932156125948
30.0,20.944894103486185,0.430797108995668,0.01225759420165102,10.864989110710919,0.5985042010081992
31.0,20.948809512439635,0.43100031289093343,0.01225403144312146,10.864463025844742,0.598515001051348
32.0,20.952725121955073,0.43120357511691204,0.012250468361865639,10.863936886261271,0.598525728845858
33.0,20.95664093150454,0.43140689560475803,0.012246905130432384,10.863410692027907,0.5985364003392234
34.0,20.96055694054773,0.43161027428372994,0.012243341428711812,10.862884443209154,0.5985469984487507
35.0,20.964473148537046,0.4318137110829974,0.012239776539367668,10.862358139870986,0.5985575926303174
36.0,20.96838955492245,0.4320172059312522,0.012236210012517078,10.861831782085806,0.5985682174448689
37.0,20.97230615916923,0.4322207587586631,0.012232642978593503,10.86130536992128,0.5985787412898689
38.0,20.976222960747446,0.43242436949588775,0.012229075777541504,10.860778903444775,0.5985891174750606
39.0,20.980139959126404,0.432628038073436,0.01222550841436307,10.860252382723642,0.5985993356042131
40.0,20.9840571537747,0.43283176442168864,0.012221940893347825,10.859725807825235,0.598609325431786
41.0,20.987974544160167,0.43303554847087194,0.012218373218175382,10.859199178816922,0.598619165735993
42.0,20.9918921297499,0.43323939015108753,0.012214805392001234,10.85867249576609,0.5986290660962638
43.0,20.99580991001026,0.4334432893922829,0.012211237417529172,10.858145758740166,0.5986386897110754
44.0,20.999727884406823,0.43364724612426864,0.012207669297072326,10.857618967806623,0.5986504918777634
45.0,21.003646052402342,0.4338512602764773,0.012204101010176716,10.8570921230324,0.5986617163906823
46.0,21.00756441345468,0.4340553317777233,0.012200532513196789,10.856565224483328,0.5986726810576134
47.0,21.011482967027217,0.43425946055741144,0.012196963872989791,10.856038272227035,0.5986837826327831
48.0,21.01540171258254,0.4344636465447707,0.0121933950908023,10.855511266331222,0.598694755844333
49.0,21.019320649582504,0.43466788966890707,0.012189826167682523,10.854984206863662,0.5987057141851138
50.0,21.023239777488175,0.4348721898587898,0.012186257104504808,10.854457093892206,0.5987169138616979
51.0,21.027159095759878,0.43507654704322934,0.012182687901990818,10.853929927484788,0.598728423777955
52.0,21.031078603857146,0.4352809611509107,0.012179118560728239,10.85340270770943,0.5987399731609373
53.0,21.034998301238765,0.43548543211035734,0.012175549081186897,10.852875434634237,0.5987515723708986
54.0,21.038918187361894,0.43568995984982695,0.012171979420686024,10.852348108327215,0.5987633075925153
55.0,21.042838261681137,0.43589454429716207,0.0121684094850182,10.851820728856028,0.5987755037382831
56.0,21.046758523653093,0.4360991853804768,0.01216483941138096,10.851293296289056,0.5987877045438939
57.0,21.05067897273361,0.4363038830277635,0.01216126903333399,10.850765810695032,0.5988002147011905
58.0,21.054599608377742,0.4365086371668527,0.012157698492852864,10.850238272142553,0.5988127094697507
59.0,21.058520430040165,0.43671344772576703,0.01215412759448522,10.849710680701211,0.598825515815026
60.0,21.062441437174027,0.4369183146321447,0.012150556445478845,10.849183036440456,0.5988384777973274
61.0,21.06636262923084,0.43712323781314927,0.012146984992948473,10.848655339429138,0.5988514527325131
62.0,21.07028400566182,0.4373282171958948,0.012143413255583909,10.84812758973626,0.5988647025057948
63.0,21.074205565918422,0.43753325270751553,0.012139841389036997,10.847599787430717,0.5988781075908081
64.0,21.07812730945135,0.43773834427503183,0.012136269393775437,10.847071932581507,0.5988917823474934
65.0,21.08204923571052,0.4379434918252832,0.012132697270226563,10.84654402525774,0.5989053831387393
66.0,21.08597134414506,0.4381486952850064,0.012129125018781581,10.846016065528627,0.5989188278861949
67.0,21.08989363420332,0.43835395458076115,0.012125552639799022,10.845488053463491,0.5989320516811015
68.0,21.093816105332884,0.4385592696389799,0.012121980133608072,10.844959989131759,0.598944588855081
69.0,21.097738756980537,0.43876464038595486,0.012118407428985645,10.84443187260254,0.5989546708078443
70.0,21.10166158859229,0.4389700667478265,0.012114834541176947,10.843903703945129,0.5989677272925761
71.0,21.105584599613373,0.439175548650595,0.012111261531361895,10.843375483229304,0.598979186279381
72.0,21.109507789487154,0.4393810860199916,0.012107688313605078,10.842847210523074,0.5989906611103534
73.0,21.113431157657253,0.4395866787817366,0.012104114965646359,10.842318885896242,0.599002311574124
74.0,21.117354703564033,0.43979232686123604,0.012100541441043236,10.841790509418166,0.5990140852989557
75.0,21.121278426646406,0.43999803018373607,0.012096967724135356,10.841262081158089,0.5990250264070556
76.0,21.125202326345928,0.44020378867451865,0.012093393887122928,10.840733601186349,0.5990351420015408
77.0,21.129126402103356,0.4404096022587593,0.012089819930436735,10.840205069573404,0.5990451885791208
78.0,21.13305065335866,0.4406154708614629,0.012086245854484914,10.83967648638982,0.5990557331981997
79.0,21.13697507955102,0.4408213944075119,0.012082671653012949,10.839147851706333,0.5990662153526348
80.0,21.14089968011886,0.4410273728216077,0.012079097316087929,10.838619165593872,0.5990790641838303
81.0,21.1448244544998,0.4412334060283372,0.01207552284454007,10.838090428123476,0.5990889168104052
82.0,21.14874940213072,0.4414394939521337,0.012071948239216751,10.837561639366292,0.5990994782909076
83.0,21.15267452244769,0.4416456365172947,0.01206837350098259,10.837032799393581,0.5991106899305839
84.0,21.15659981488603,0.4418518336479715,0.012064798630718814,10.836503908276715,0.5991222508789532
85.0,21.160525278880268,0.4420580852681851,0.01206122362932314,10.835974966087171,0.599131527004089
86.0,21.164450913864165,0.4422643913017981,0.012057648497708896,10.835445972896544,0.599144343197234
87.0,21.168376719270693,0.44247075167253797,0.012054073236804562,10.834916928776538,0.5991564904600162
88.0,21.17230269453205,0.44267716630399273,0.012050497847553038,10.834387833798965,0.599168448726466
89.0,21.17622883907965,0.4428836351196181,0.012046922315767605,10.833858688035813,0.5991804918244149
90.0,21.18015515234412,0.4430901580427072,0.012043346616367768,10.833329491559258,0.5991925690233054
91.0,21.184081633754968,0.44329673499636063,0.012039770771140048,10.832800244441101,0.5992044953091351
92.0,21.188008282740654,0.44350336590347045,0.012036194766353987,10.83227094675299,0.5992165085910829
93.0,21.19193509872951,0.44371005068693264,0.01203261863687786,10.831741598567284,0.5992286712521296
94.0,21.19586208114906,0.44391678926947137,0.012029042383815329,10.831212199956457,0.5992407875120299
95.0,21.19978922942603,0.444123581573701,0.012025466008277037,10.830682750993097,0.5992540946485209
96.0,21.203716542986385,0.44433042752208424,0.012021889511379467,10.830153251749904,0.5992679857686897
97.0,21.207644021255277,0.44453732703692905,0.012018312894243769,10.829623702299687,0.5992806128639793
98.0,21.211571663657086,0.44474428004040406,0.012014736157994626,10.829094102715375,0.5992924634158496
99.0,21.215499469615363,0.444951286454557,0.012011159299712084,10.828564453069976,0.5993039623716325
100.0,21.2194274385529,0.44515834620126943,0.012007582320481745,10.828034753436611,0.5993167174224008
101.0,21.22335556989167,0.4453654592022865,0.012004005221476719,10.827505003888513,0.5993301330654244
102.0,21.227283863052865,0.44557262537921516,0.012000428003872255,10.82697520449903,0.5993434935459295
103.0,21.23121231745686,0.445779844653511,0.01199685066884448,10.826445355341624,0.5993565618862529
104.0,21.235140932523244,0.4459871169465004,0.011993273217569031,10.825915456489872,0.5993695012194161
105.0,21.239069707670936,0.4461944421793647,0.011989695635740634,10.825385508017332,0.5993825803070768
106.0,21.24299864231827,0.4464018202731325,0.011986117905014493,10.824855509997501,0.5993958801197039
107.0,21.24692773588244,0.446609251148711,0.011982540061950587,10.824325462504293,0.5994089586557868
108.0,21.25085698777985,0.4468167347268402,0.01197896210773927,10.823795365611737,0.5994218691713283
109.0,21.254786397426084,0.44702427092813574,0.01197538404356158,10.823265219393976,0.5994346864272377
110.0,21.258715964235925,0.4472318596730509,0.011971805870587784,10.822735023925274,0.5994471074718993
111.0,21.262645687623333,0.4474395008819177,0.01196822758997626,10.822204779280005,0.5994611948446061
112.0,21.266575567001475,0.44764719447489426,0.011964649202872242,10.821674485532666,0.5994744123074512
113.0,21.27050560178269,0.4478549403720326,0.011961070710406299,10.821144142757866,0.5994869590706564
114.0,21.274435791378515,0.4480627384932081,0.011957492113693137,10.820613751030335,0.5994991795049084
115.0,21.278366135199654,0.44827058875816567,0.011953913413830175,10.820083310424916,0.5995112539512899
116.0,21.282296632656013,0.44847849108651255,0.011950334611896108,10.819552821016575,0.5995233205476759
117.0,21.28622728315666,0.4486864453976989,0.011946755708949663,10.819022282880395,0.5995352685797826
118.0,21.29015808610987,0.4488944516110365,0.01194317670602812,10.818491696091574,0.5995469284516449
119.0,21.294089040923076,0.44910250964570597,0.011939597604146004,10.817961060725432,0.5995585867972352
120.0,21.29802014700288,0.4493106194207159,0.011936018404293858,10.81743037685741,0.5995706041479302
121.0,21.301951403755485,0.44951878085528046,0.011932439065433564,10.816899644560024,0.5995820812615559
122.0,21.305882810585913,0.44972699386815923,0.011928859622729526,10.816368863908638,0.5995938346839087
123.0,21.309814366898344,0.44993525837794796,0.011925280081498936,10.815838034979055,0.5996057271187086
124.0,21.313746072096112,0.4501435743031099,0.011921700442739117,10.815307157847204,0.5996177354949337
125.0,21.317677925581748,0.4503519415619301,0.011918120707419799,10.814776232589132,0.5996290919587048
126.0,21.321609926756928,0.45056036007256833,0.011914540876481599,10.814245259281005,0.5996396800164288
127.0,21.32554207502252,0.45076882975304167,0.011910960949111508,10.813714237999111,0.59965151036452
128.0,21.32947436977855,0.4509773505212194,0.011907380925196786,10.81318316881986,0.5996653153934884
129.0,21.333406810423988,0.45118592229493365,0.011903800778158974,10.812652051819082,0.5996777809374373
130.0,21.33733939635715,0.45139454499179577,0.011900220528805483,10.812120887073233,0.5996897515051287
131.0,21.3412721269756,0.4516032185292495,0.011896640185890964,10.811589674659093,0.5997017072680874
132.0,21.345205001676042,0.4518119428245749,0.011893059750182764,10.811058414653562,0.5997136880157257
133.0,21.34913801985438,0.4520207177949111,0.011889479222411509,10.810527107133668,0.5997256172849131
134.0,21.35307118090524,0.4522295433572417,0.011885898589990894,10.809995752175187,0.5997373361634717
135.0,21.357004484221804,0.452438419428377,0.011882317835593166,10.809464349852021,0.5997488341033296
136.0,21.36093792919747,0.4526473459250114,0.011878736985814814,10.808932900241519,0.599760461967466
137.0,21.364871515224824,0.4528563227637152,0.011875156041457757,10.808401403421156,0.5997730976408283
138.0,21.368805241695604,0.4530653498608948,0.01187157498430663,10.807869859467058,0.5997857425886656
139.0,21.372739108000708,0.453274427132828,0.011867993819476744,10.807338268455888,0.5997983434504118
140.0,21.376673113530206,0.453483554495625,0.011864412561222925,10.8068066304655,0.599810749869096
141.0,21.38060725767331,0.45369273186527154,0.011860831210247228,10.806274945573875,0.5998230324826338
142.0,21.38454153981779,0.45390195915769366,0.011857249740636958,10.805743213858209,0.5998355542877482
143.0,21.388475959352004,0.45411123628872146,0.011853668146730053,10.805211435395597,0.5998478586854739
144.0,21.39241051566327,0.45432056317393327,0.011850086453739455,10.804679610264142,0.5998601286470356
145.0,21.3963452081375,0.4545299397287366,0.011846504669867305,10.804147738542342,0.5998723661616928
146.0,21.40028003615975,0.4547393658683933,0.01184292279570626,10.803615820308826,0.5998846148689279
147.0,21.404214999114256,0.4549488415080143,0.011839340831807954,10.803083855642349,0.5998968461851728
148.0,21.408150096384393,0.45515836656256514,0.011835758778682459,10.802551844621792,0.5999086229823443
149.0,21.412085327352685,0.45536794094687144,0.011832176636797677,10.802019787326165,0.5999197067662766
150.0,21.41602069140084,0.45557756457561766,0.011828594406578834,10.8014876838346,0.5999332818538521
151.0,21.419956187909687,0.4557872373633322,0.011825012081800835,10.80095553422632,0.5999471324636015
152.0,21.423891816259236,0.4559969592244097,0.011821429659598788,10.800423338580627,0.5999605847436699
153.0,21.427827575829387,0.4562067300732806,0.011817847099283907,10.799891096974154,0.5999733394278793
154.0,21.431763465998444,0.45641654982405305,0.011814264442978626,10.799358809486504,0.5999854991192358
155.0,21.435699486140773,0.4566264183903594,0.011810681697934996,10.798826476195073,0.5999966256078582
156.0,21.43963563562911,0.4568363356856333,0.011807098822159742,10.798294097175955,0.6000080013332911
157.0,21.44357191383893,0.4570463016235011,0.01180351584156502,10.797761672508972,0.6000204752688693
158.0,21.447508320144895,0.45725631611748124,0.01179993272363335,10.797229202271891,0.6000339334727989
159.0,21.45144485392081,0.4574663790809323,0.01179634949590234,10.79669668654454,0.6000472958419406
160.0,21.45538151453966,0.4576764904270643,0.011792766134699966,10.796164125406088,0.600060519568781
161.0,21.45931830137359,0.45788665006896206,0.01178918265483193,10.795631518936458,0.6000729112293863
162.0,21.463255213793914,0.4580968579195557,0.011785599068361437,10.795098867216193,0.6000846332194035
163.0,21.467192251171113,0.45830711389165146,0.011782015375059091,10.794566170325972,0.600093573120743
164.0,21.471129412874845,0.4585174178978986,0.011778431561396458,10.794033428346584,0.600104270687463
165.0,21.47506669827393,0.4587277698508038,0.011774847617567759,10.79350064135894,0.6001153387921206
166.0,21.479004106736337,0.45893816966273854,0.011771263565701039,10.792967809444097,0.6001271741045707
167.0,21.48294163762776,0.4591486172456924,0.011767679379547112,10.792434932681681,0.6001397137534502
168.0,21.486879290314555,0.45935911251175804,0.011764095085932116,10.791902011153075,0.6001519534912354
169.0,21.490817064162265,0.4595696553728947,0.011760510684790521,10.7913690449398,0.6001640103788722
170.0,21.494754958535598,0.4597802457409194,0.011756926176074186,10.790836034123519,0.6001757299428586
171.0,21.49869297279843,0.45999088352750755,0.011753341559751851,10.79030297878603,0.6001872928809014
172.0,21.502631106313828,0.46020156864420536,0.011749756835808348,10.789769879009272,0.600199349777312
173.0,21.50656935844401,0.4604123010024108,0.011746171990859453,10.789236734875063,0.6002112664122666
174.0,21.510507728550387,0.46062308051338796,0.01174258700740828,10.788703546465028,0.6002210678984882
175.0,21.514446215993523,0.4608339070882547,0.011739001915300359,10.788170313861503,0.6002330385151101
176.0,21.518384820133164,0.4610447806380004,0.011735416714587131,10.787637037146972,0.6002443409849157
177.0,21.52232354032824,0.4612557010734741,0.011731831405330231,10.78710371640405,0.6002552856686922
178.0,21.526262375940828,0.4614666683059732,0.01172824594524272,10.786570351714442,0.6002658487036873
179.0,21.53020132633039,0.4616776822463899,0.011724660352116233,10.786036943160479,0.6002770538535536
180.0,21.53414039085343,0.461888742805159,0.011721074648281683,10.785503490825196,0.6002889132205604
181.0,21.538079568865637,0.462099849892591,0.011717488833892996,10.784969994791767,0.6003008179923989
182.0,21.542018859721853,0.46231100341884684,0.011713902909108105,10.784436455143505,0.6003123654478898
183.0,21.54595826277609,0.46252220329395155,0.011710316874086916,10.783902871963862,0.600323620233146
184.0,21.549897777381524,0.4627334494277952,0.011706730728989315,10.783369245336434,0.60033423780938
185.0,21.553837402890508,0.4629447417301203,0.011703144473973139,10.782835575344954,0.6003444616565495
186.0,21.557777138654558,0.4631560801105478,0.011699558109192034,10.782301862073295,0.6003538335526831
187.0,21.561716984024336,0.46336746447855,0.011695971634793344,10.781768105605469,0.6003637179586224
188.0,21.565656938349704,0.46357889474346853,0.011692385050916231,10.781234306025633,0.6003736431080597
189.0,21.569597000979673,0.46379037081450436,0.011688798357689377,10.78070046341808,0.6003835223131064
190.0,21.57353717126241,0.46400189260072056,0.011685211555229294,10.780166577867247,0.6003937846393136
191.0,21.57747744854526,0.46421346001105307,0.011681624627901553,10.779632649457858,0.6004042109441657
192.0,21.581417832174743,0.46442507295428276,0.011678037585718955,10.779098678274684,0.600415208730727
193.0,21.585358321496532,0.46463673133907313,0.011674450435054612,10.778564664402579,0.6004256493210774
