k,PSNR,SSIM,mse,Log-Gradient,Angle
0.0,20.26425528204665,0.41402876209504486,0.0,10.940695019594461,0.6005770235118203
1.0,20.267396918871967,0.4141795815597546,0.010280256771529923,10.94026550290468,0.601661977737023
2.0,20.271073816947744,0.41435779647554466,0.012202041006677568,10.939766019032978,0.6016706718634276
3.0,20.27477316075579,0.41453725208114706,0.012308630418234111,10.939263600007221,0.6016852009219349
4.0,20.278473603430204,0.4147168101196102,0.012314605506268086,10.938760995245946,0.6016962611821658
5.0,20.282173449332532,0.4148963772381518,0.012310342412654052,10.938258428248137,0.6017111507252247
6.0,20.285872448670407,0.41507593907712215,0.012304128605320295,10.937755934848765,0.6017207901142873
7.0,20.289570558189528,0.4152554931435993,0.012297428982733555,10.937253523057127,0.6017305757445398
8.0,20.29326776489284,0.41543503858715597,0.012290539539905004,10.936751195854722,0.6017402883566437
9.0,20.296964062660305,0.41561457498375987,0.012283561777001965,10.936248954808498,0.6017500054169985
10.0,20.300659448951592,0.4157941021143281,0.01227653980183301,10.935746800698489,0.6017597305841008
11.0,20.304353922572474,0.41597361983892595,0.012269486281773512,10.935244734077122,0.6017695537190811
12.0,20.308047482371418,0.4161531280296791,0.012262412429810394,10.93474275534707,0.6017792680096815
13.0,20.311740127497956,0.416332626573301,0.012255329221629247,10.934240864757196,0.601788876805253
14.0,20.315431857363485,0.4165121153839722,0.01224823597927866,10.933739062552611,0.6017983896752176
15.0,20.319122671327108,0.4166915943646375,0.012241140711341664,10.933237348885347,0.6018078264520131
16.0,20.322812568896534,0.41687106343107355,0.01223404612434843,10.932735723874542,0.6018172195429005
17.0,20.326501549595207,0.41705052250062385,0.012226953214898875,10.932234187610952,0.6018265558373074
18.0,20.330189612929168,0.41722997149221186,0.012219858794412838,10.931732740195908,0.6018358686431228
19.0,20.333876758431266,0.41740941032413886,0.012212766543839966,10.931231381719684,0.6018451432422597
20.0,20.33756298563716,0.41758883891501225,0.012205675478442273,10.930730112282918,0.6018543013678088
21.0,20.3412482940847,0.4177682571836811,0.01219858472600775,10.930228931979865,0.6018633988771626
22.0,20.344932683313463,0.4179476650491676,0.012191493684058877,10.929727840915556,0.6018725258729002
23.0,20.348616152864412,0.41812706243064107,0.012184405339027152,10.929226839175241,0.6018818936464829
24.0,20.35229870227969,0.4183064492473875,0.01217731910888982,10.928725926845646,0.6018913002856184
25.0,20.355980331102415,0.41848582541878715,0.012170235667869947,10.928225104009314,0.6019006448079792
26.0,20.359661038876567,0.4186651908643033,0.012163155068245127,10.927724370746226,0.6019099329742927
27.0,20.363340825146892,0.4188445455034595,0.012156077673367792,10.92722372713556,0.6019192099210205
28.0,20.367019689458786,0.4190238892558509,0.0121490027169432,10.926723173258692,0.6019284074466754
29.0,20.370697631358272,0.4192032220411115,0.012141931029562443,10.926222709193869,0.6019375437018313
30.0,20.37437465039195,0.41938254377893625,0.01213486261480295,10.925722335019106,0.6019467472400429
31.0,20.378050746106968,0.41956185438905386,0.012127797474760053,10.925222050812208,0.6019560550223059
32.0,20.381725918050975,0.41974115379124566,0.012120735610344355,10.924721856650816,0.6019653580403677
33.0,20.385400165772126,0.41992044190531336,0.012113677021512993,10.924221752612423,0.601974566995572
34.0,20.389073488819058,0.42009971865111423,0.012106621579264069,10.923721738770361,0.6019838526214674
35.0,20.392745886740848,0.42027898394852875,0.012099569268891984,10.923221815199936,0.6019931108528019
36.0,20.396417359087057,0.4204582377174759,0.012092519618538194,10.922721981987642,0.6020024927755333
37.0,20.400087905404188,0.42063747987766814,0.012085472388488873,10.922222239213426,0.60201182652812
38.0,20.4037575252382,0.42081671034878426,0.012078427903368936,10.921722586951772,0.6020211480743468
39.0,20.407426218140206,0.4209959290508534,0.012071386390730424,10.921223025278927,0.6020304367426376
40.0,20.41109398366174,0.42117513590395245,0.012064348113780116,10.920723554271547,0.6020397051351078
41.0,20.414760821354786,0.4213543308281795,0.012057313071575974,10.920224174006218,0.6020490290473377
42.0,20.418426730771742,0.4215335137436687,0.012050281263008958,10.919724884559479,0.6020584576271354
43.0,20.42209171146546,0.4217126845705817,0.012043252686829006,10.919225686007803,0.6020679228034425
44.0,20.425755762989187,0.4218918432291163,0.012036227341667396,10.918726578427615,0.602077467639735
45.0,20.429418884896627,0.42207098963950146,0.012029205226055783,10.918227561895293,0.6020870067232226
46.0,20.43308107674188,0.4222501237219916,0.012022186338442228,10.917728636487164,0.6020964810100218
47.0,20.436742338079483,0.42242924539688037,0.012015170677204711,10.917229802279508,0.6021059333497308
48.0,20.44040266846441,0.42260835458448875,0.01200815824066304,10.916731059348558,0.6021153405322809
49.0,20.44406206745204,0.4227874512051704,0.012001149015146135,10.916232407770472,0.6021247622806836
50.0,20.44772053459818,0.4229665351793111,0.011994142875562285,10.915733847620965,0.6021341241498093
51.0,20.451378069459047,0.42314560642732335,0.011987139798264372,10.91523537897743,0.6021434487581675
52.0,20.455034671591324,0.4233246648696602,0.01198013984639546,10.914737001916636,0.6021528252455496
53.0,20.458690340552074,0.42350371042680107,0.011973143106680377,10.914238716514548,0.6021620908708164
54.0,20.4623450758988,0.4236827430192587,0.011966149483097302,10.913740522846119,0.6021712233622293
55.0,20.465998877189435,0.42386176256757513,0.011959158765126779,10.913242420988784,0.6021802864236948
56.0,20.469651743982325,0.42404076899232584,0.011952171231583125,10.912744411018627,0.6021892595292857
57.0,20.47330367583624,0.42421976221412444,0.0119451869064028,10.912246493011395,0.6021981764949712
58.0,20.4769546723104,0.424398742153609,0.011938205772946442,10.911748667042751,0.6022072424207942
59.0,20.480604732964412,0.42457770873145334,0.011931227670644178,10.911250933187876,0.602216272094567
60.0,20.48425385735834,0.4247566618683691,0.011924252774406282,10.910753291522395,0.6022252436541461
61.0,20.48790204505265,0.4249356014850891,0.01191728108317096,10.91025574212189,0.6022340206024391
62.0,20.491549295608262,0.4251145275023889,0.011910312483150548,10.909758285062356,0.6022427410016816
63.0,20.4951956085865,0.42529343984107965,0.01190334700867452,10.909260920419577,0.6022516585275389
64.0,20.49884098354912,0.4254723384219925,0.011896384739684372,10.90876364826897,0.6022605116134789
65.0,20.502485420058317,0.42565122316600706,0.011889425675375358,10.90826646868592,0.6022692511855638
66.0,20.506128917676698,0.42583009399402516,0.011882469814944976,10.907769381745766,0.6022778539612201
67.0,20.509771475967327,0.4260089508269916,0.011875517157593682,10.907272387523816,0.6022862650591013
68.0,20.513413094493668,0.42618779358587716,0.01186856770252598,10.906775486095334,0.6022950819512607
69.0,20.517053772819636,0.42636662219169624,0.011861621356726923,10.906278677535658,0.602304048800655
70.0,20.520693510509574,0.4265454365654861,0.01185467817546969,10.905781961920011,0.60231306472479
71.0,20.524332307128258,0.42672423662832615,0.011847738198750651,10.905285339323529,0.602321910787721
72.0,20.52797016224089,0.42690302230132704,0.01184080142588036,10.90478880982131,0.6023306724277783
73.0,20.53160707541312,0.4270817935056417,0.011833867856171682,10.904292373488417,0.6023392571737661
74.0,20.53524304621101,0.42726055016244374,0.011826937488940493,10.903796030399869,0.6023476807099157
75.0,20.538878074201076,0.42743929219295634,0.011820010323505856,10.903299780630652,0.6023559359082237
76.0,20.542512158950274,0.42761801951843,0.01181308635919031,10.90280362425571,0.6023641276390398
77.0,20.546145300025973,0.42779673206014984,0.011806165595320427,10.902307561349955,0.6023722154739191
78.0,20.549777496995997,0.42797542973944674,0.011799248031226684,10.901811591988254,0.6023802628762215
79.0,20.553408749428602,0.4281541124776729,0.011792333666244012,10.90131571624544,0.6023882658355891
80.0,20.557039056892485,0.4283327801962251,0.011785422499711668,10.900819934196306,0.6023963218221421
81.0,20.560668418956777,0.42851143281653736,0.011778514530973555,10.900324245915604,0.6024043209058515
82.0,20.564296835191058,0.4286900702600765,0.01177160975937821,10.899828651478053,0.6024122706004719
83.0,20.567924305165334,0.42886869244834375,0.011764708184278942,10.89933315095833,0.6024203337849832
84.0,20.571550828450068,0.4290472993028817,0.011757809805033775,10.898837744431072,0.6024288846276439
85.0,20.575176404616144,0.429225890745265,0.011750914621005661,10.898342431970882,0.6024373751225324
86.0,20.57880103323491,0.42940446669711196,0.011744022631562235,10.89784721365232,0.6024458464727498
87.0,20.582424713878144,0.42958302708007423,0.011737133836076063,10.897352089549905,0.602454397134457
88.0,20.586047446118076,0.42976157181583746,0.011730248233924443,10.896857059738124,0.6024635634127019
89.0,20.589669229527377,0.4299401008261298,0.011723365824489462,10.896362124291421,0.6024726410435229
90.0,20.59329006367915,0.43011861403271273,0.011716486607157885,10.8958672832842,0.6024813425125957
91.0,20.59690994814696,0.4302971113573893,0.011709610581321181,10.895372536790825,0.6024897408684237
92.0,20.60052888250481,0.43047559272199915,0.011702737746375319,10.894877884885624,0.6024981056529429
93.0,20.604146866327156,0.4306540580484172,0.011695868101720878,10.89438332764288,0.6025064774091429
94.0,20.607763899188896,0.4308325072585622,0.011689001646762745,10.89388886513684,0.6025148201292315
95.0,20.611379980665383,0.43101094027438674,0.011682138380910211,10.893394497441713,0.6025230953287027
96.0,20.614995110332405,0.4311893570178811,0.011675278303576751,10.892900224631665,0.6025309805665983
97.0,20.61860928776622,0.43136775741107974,0.01166842141417993,10.89240604678082,0.6025387465177473
98.0,20.62222251254351,0.4315461413760484,0.01166156770830538,10.891911963963269,0.6025469454084623
99.0,20.625834784241434,0.43172450883490443,0.01165471718483137,10.891417976253056,0.602555337148008
100.0,20.629446102437583,0.4319028597097874,0.011647869836100049,10.890924083724169,0.6025636206122965
101.0,20.633056466710016,0.4320811939228891,0.011641025661062312,10.890430286450549,0.6025717033832344
102.0,20.63666587663723,0.4322595113964354,0.011634184659303846,10.889936584506103,0.6025795957299652
103.0,20.64027433179818,0.4324378120526941,0.011627346830427033,10.889442977964688,0.6025874319965988
104.0,20.643881831772276,0.4326160958139738,0.011620512174050732,10.888949466900126,0.6025954975867035
105.0,20.6474883761394,0.43279436260261406,0.011613680689477974,10.888456051386195,0.6026037757616908
106.0,20.65109396447985,0.4329726123410098,0.011606852372234982,10.887962731496684,0.6026128486545653
107.0,20.65469859637441,0.4331508449515849,0.011600027222010235,10.887469507305333,0.6026224317345258
108.0,20.658302271404324,0.4333290603568079,0.011593205238511744,10.886976378885848,0.6026320814903476
109.0,20.661904989151264,0.43350725847918437,0.011586386421466694,10.88648334631188,0.6026414320976241
110.0,20.665506749197398,0.43368543924126585,0.01157957077062136,10.885990409657053,0.6026504649108789
111.0,20.66910755112532,0.4338636025656409,0.011572758285740687,10.885497568994932,0.6026592446648155
112.0,20.672707394518106,0.43404174837493975,0.011565948966608005,10.885004824399049,0.6026677729807495
113.0,20.67630627895927,0.4342198765918422,0.01155914281302479,10.88451217594289,0.6026769897333363
114.0,20.67990420403282,0.43439798713905337,0.011552339824810251,10.884019623699897,0.6026866723711531
115.0,20.683501169323183,0.4345760799393314,0.011545539995314463,10.883527167743479,0.6026963039456757
116.0,20.68709717441528,0.43475415491547514,0.011538743320975221,10.883034808147,0.6027056301098742
117.0,20.690692218894476,0.43493221199032295,0.011531949801689416,10.882542544983785,0.6027146448903011
118.0,20.69428630234661,0.4351102510867557,0.011525159437321278,10.882050378327111,0.6027235098247937
119.0,20.697879424357986,0.4352882721276961,0.011518372227001812,10.881558308250202,0.6027323919011439
120.0,20.701471584515367,0.4354662750361102,0.011511588170801139,10.881066334826238,0.6027411121968084
121.0,20.705062782405975,0.4356442597350098,0.0115048072688101,10.880574458128354,0.6027497010263024
122.0,20.70865301761751,0.4358222261474405,0.01149802952102157,10.880082678229638,0.6027582594026342
123.0,20.71224228973813,0.4360001741965022,0.011491254925026298,10.87959099520312,0.6027667836520988
124.0,20.71583059835646,0.43617810380532407,0.011484483480991384,10.879099409121784,0.6027753689620188
125.0,20.719417943061597,0.43635601489709447,0.011477715189103718,10.878607920058565,0.6027840789445317
126.0,20.723004323443103,0.4365339073950321,0.011470950049568907,10.878116528086359,0.6027926249744092
127.0,20.726589739091015,0.4367117812224071,0.011464188062610613,10.877625233278007,0.6028010448962365
128.0,20.73017418959582,0.4368896363025239,0.011457429228469367,10.877134035706309,0.6028093853528097
129.0,20.733757674548507,0.43706747255874373,0.011450673547401756,10.876642935444021,0.6028177328532717
130.0,20.737340193540494,0.43724528991446104,0.011443921019679469,10.876151932563847,0.6028259827937551
131.0,20.740921746163714,0.4374230882931203,0.011437171644425766,10.875661027138452,0.6028342862674277
132.0,20.744502332010548,0.437600867618208,0.011430425420557331,10.87517021924046,0.6028424124180628
133.0,20.74808195067385,0.4377786278132549,0.011423682348407417,10.874679508942448,0.6028499888253006
134.0,20.75166060174694,0.43795636880183525,0.011416942428322658,10.874188896316944,0.6028570454717771
135.0,20.755238284823637,0.43813409050757174,0.01141020566066193,10.87369838143643,0.6028640249458328
136.0,20.75881499949821,0.4383117928541265,0.011403472040806746,10.873207964373377,0.6028719371373595
137.0,20.76239074536542,0.43848947576521585,0.01139674156363001,10.872717645200236,0.6028799190613235
138.0,20.765965522020483,0.4386671391645889,0.01139001422954907,10.872227423989422,0.6028874797011509
139.0,20.769539329059118,0.4388447829760509,0.01138329003334796,10.87173730081328,0.6028943881055581
140.0,20.7731121660775,0.4390224071234477,0.011376568971038914,10.871247275744093,0.6029017112114531
141.0,20.776684032672286,0.43920001153066845,0.011369851043145224,10.870757348854097,0.602910500254028
142.0,20.78025492844062,0.43937759612165445,0.011363136237983448,10.870267520214568,0.6029182555829614
143.0,20.78382485298011,0.4395551608203876,0.01135642454093088,10.869777789895645,0.602925976184168
144.0,20.78739380588885,0.4397327055509003,0.011349715979215089,10.869288157969429,0.6029340901522944
145.0,20.79096178676542,0.439910230237264,0.011343010553503388,10.868798624507972,0.6029422012009681
146.0,20.79452879520887,0.44008773480360724,0.011336308239092386,10.868309189581561,0.602950277689252
147.0,20.798094830818734,0.4402652191740932,0.011329609040161085,10.86781985326107,0.6029587377520024
148.0,20.801659893195023,0.4404426832729418,0.011322912948568981,10.867330615618021,0.6029671019250871
149.0,20.80522398193824,0.44062012702441544,0.011316219994828475,10.866841476724279,0.6029754211683805
150.0,20.808787096649365,0.44079755035282386,0.01130953017974826,10.866352436651649,0.6029840006464264
151.0,20.812349236929858,0.4409749531825244,0.0113028435041545,10.865863495471897,0.602992462783426
152.0,20.81591040238168,0.44115233543791477,0.011296159953748022,10.865374653256561,0.6030007699110721
153.0,20.819470592607253,0.4413296970434571,0.011289479521125077,10.864885910077037,0.6030091430527506
154.0,20.823029807209494,0.44150703792364626,0.011282802230035992,10.864397266004945,0.6030173614726538
155.0,20.826588045791816,0.4416843580030288,0.011276128081392785,10.863908721111853,0.6030252930704154
156.0,20.830145307958105,0.4418616572061998,0.01126945707514406,10.86342027546924,0.6030332826102413
157.0,20.833701593312735,0.4420389354578034,0.011262789206342055,10.862931929148255,0.6030425374997331
158.0,20.837256901460584,0.4422161926825314,0.011256124482361438,10.862443682220286,0.6030511684520581
159.0,20.840811232007,0.4423934288051207,0.011249462904158732,10.861955534756666,0.6030596638337047
160.0,20.844364584557816,0.44257064375036204,0.011242804472691163,10.861467486828676,0.6030683776952971
161.0,20.847916958719374,0.4427478374430918,0.011236149188914718,10.860979538507554,0.6030773828046985
162.0,20.851468354098493,0.44292500980819954,0.011229497051742157,10.860491689864487,0.6030864063174481
163.0,20.855018770302486,0.4431021607706121,0.011222848056123867,10.860003940970632,0.6030952607351543
164.0,20.858568206939164,0.4432792902553179,0.011216202170090632,10.859516291897046,0.6031032476741011
165.0,20.862116663616813,0.4434563981873523,0.011209559422578027,10.859028742714784,0.6031105821261445
166.0,20.865664139944236,0.4436334844917949,0.011202919818897303,10.85854129349485,0.6031177349128732
167.0,20.869210635530706,0.4438105490937789,0.011196283325406477,10.858053944308587,0.6031259003954333
168.0,20.872756149986,0.4439875919184848,0.011189649978259516,10.85756669522689,0.6031351039128767
169.0,20.8763006829204,0.44416461289114223,0.011183019764563611,10.857079546320055,0.6031438403198263
170.0,20.87984423394466,0.44434161193703997,0.011176392679024,10.85659249765808,0.6031518263109802
171.0,20.883386802670046,0.44451858898150404,0.011169768742829739,10.85610554931173,0.603159232646512
172.0,20.88692838870831,0.44469554394991745,0.011163147956535594,10.85561870135173,0.6031665158252518
173.0,20.890468991671717,0.4448724767677162,0.011156530319137183,10.855131953848757,0.6031737185783655
174.0,20.894008611173,0.44504938736037647,0.011149915831331807,10.854645306873435,0.6031814242170551
175.0,20.897547246825418,0.44522627565343625,0.011143304494062676,10.854158760496338,0.6031889862378368
176.0,20.901084898242708,0.445403141572482,0.011136696308249008,10.853672314787996,0.6031963581975951
177.0,20.904621565039115,0.44557998504314716,0.011130091274784194,10.853185969818885,0.6032035184934527
178.0,20.90815724682939,0.445756805991117,0.011123489394533993,10.852699725659436,0.6032110073026519
179.0,20.911691943228785,0.44593360434213364,0.011116890668335069,10.852213582380028,0.6032185709576717
180.0,20.91522565385302,0.4461103800219834,0.011110295095819903,10.851727540051021,0.6032262193070357
181.0,20.91875837831836,0.4462871329565082,0.011103702677231396,10.851241598742737,0.6032338026491334
182.0,20.922290116241548,0.44646386307160163,0.01109711341332594,10.850755758525446,0.6032413894175372
183.0,20.92582086723982,0.446640570293208,0.011090527304825872,10.850270019469377,0.6032492900485874
184.0,20.929350630930948,0.4468172545473248,0.011083944352418029,10.849784381644707,0.6032569893439342
185.0,20.932879406933186,0.44699391576000075,0.011077364556752487,10.849298845121561,0.6032647068243294
186.0,20.936407194865268,0.4471705538573328,0.011070787918441103,10.848813409970028,0.6032722742176181
187.0,20.939933994346497,0.4473471687654839,0.011064214438056575,10.848328076260136,0.6032796778702698
188.0,20.943459804996607,0.4475237604106502,0.011057644116131183,10.847842844061878,0.6032869120883915
189.0,20.946984626435892,0.4477003287190957,0.011051076953155612,10.847357713445192,0.6032940506068986
190.0,20.95050845828513,0.44787687361713274,0.011044512949578167,10.84687268447997,0.6033012528966308
191.0,20.954031300165607,0.4480533950311258,0.01103795210580366,10.84638775723606,0.6033084077477082
192.0,20.95755315169911,0.44822989288748843,0.011031394422192663,10.845902931783263,0.603315462774133
193.0,20.96107401250795,0.4484063671126954,0.011024839899060564,10.845418208191328,0.6033223151955159
