k,PSNR,SSIM,mse,Log-Gradient,Angle
0.0,20.26425528204665,0.41402876209504486,0.0,10.940695019594461,0.6005770235118203
1.0,20.267397442367457,0.41417960669320647,0.010281969576723476,10.940265431329555,0.6016619792948991
2.0,20.271075476738577,0.414357876457283,0.012205764911660115,10.939765792617536,0.601670675990731
3.0,20.2747765735227,0.41453741685204165,0.012314397319098913,10.93926313495998,0.6016852079512561
4.0,20.278479386146607,0.41471708965508314,0.01232242030395002,10.938760207712278,0.6016962786705952
5.0,20.282182218985806,0.4148968015328005,0.012320204579252926,10.938257234347246,0.6017111739525548
6.0,20.28588482222068,0.41507653814231,0.012316036568079655,10.937754250679685,0.6017208232477979
7.0,20.289587152562074,0.4152562970069786,0.012311380878706467,10.937251264700146,0.6017306196212828
8.0,20.293289196975568,0.41543607729248827,0.012306533422097848,10.936748279371962,0.6017403445239907
9.0,20.29699094930216,0.4156158785907897,0.012301595659214345,10.936245296244241,0.6017500738219606
10.0,20.300692406961566,0.41579570069867505,0.01229661167960996,10.9357423160794,0.6017598137693455
11.0,20.304393568718897,0.4159755434920121,0.012291594146371586,10.93523933941239,0.6017696531018185
12.0,20.30809443338122,0.4161554068586579,0.01228655426527465,10.934736366628545,0.6017793859228494
13.0,20.31179500005605,0.416335290700973,0.012281503005394559,10.934233397959487,0.6017890143393371
14.0,20.315495268112098,0.41651519494871286,0.012276439687958447,10.933730433633185,0.6017985484035111
15.0,20.319195236865113,0.4166951195203297,0.012271372317031914,10.933227473784635,0.6018080095106837
16.0,20.322894905778895,0.4168750643470323,0.012266303597910016,10.932724518515997,0.6018174263197813
17.0,20.32659427433234,0.41705502936153094,0.012261234527812217,10.932221567901122,0.6018267911004683
18.0,20.330293341986348,0.41723501449804407,0.012256161921932818,10.931718622024514,0.6018361308223109
19.0,20.333992108228017,0.41741501969009853,0.012251089457557676,10.93121568095968,0.6018454341505042
20.0,20.337690572546645,0.41759504487145405,0.012246016151809423,10.93071274479057,0.6018546196150739
21.0,20.341388734433124,0.4177750899760451,0.01224094113848662,10.930209813594793,0.6018637489224911
22.0,20.345086593379456,0.4179551549379079,0.012235863807737812,10.929706887460869,0.6018729186842591
23.0,20.348784148878437,0.4181352396911541,0.012230787148139174,10.929203966457564,0.6018823308537822
24.0,20.35248140042343,0.4183153441699474,0.012225710577371056,10.928701050655206,0.6018917740058364
25.0,20.356178347508163,0.41849546830846945,0.012220634770816231,10.928198140120001,0.6019011570563293
26.0,20.359874989626636,0.41867561204091386,0.012215559780731678,10.927695234915666,0.6019104840635073
27.0,20.363571326272975,0.4188557753014719,0.012210485973408845,10.92719233510517,0.601919801357377
28.0,20.367267356941387,0.41903595802432597,0.01220541257911457,10.926689440753771,0.6019290385610487
29.0,20.37096308112609,0.4192161601436384,0.012200340430428095,10.92618655192366,0.601938216270328
30.0,20.374658498321253,0.4193963815935459,0.012195269531666528,10.925683668676855,0.601947482034151
31.0,20.37835360802101,0.41957662230816467,0.012190199885666334,10.925180791075242,0.6019568398173353
32.0,20.382048409719367,0.4197568822215754,0.012185131494080233,10.92467791918061,0.6019661878860695
33.0,20.385742902910252,0.41993716126783215,0.012180064357608197,10.924175053054666,0.6019754472146274
34.0,20.38943708708743,0.42011745938094885,0.012174998348640288,10.923672192755022,0.6019847879607777
35.0,20.393130961744554,0.42029777649490946,0.012169933453017366,10.92316933834134,0.6019941126514209
36.0,20.396824526375077,0.4204781125436529,0.01216486920635681,10.922666489884481,0.6020035496614803
37.0,20.40051778046888,0.4206584674608474,0.012159805360369836,10.92216364744894,0.6020129354497428
38.0,20.404210723514602,0.42083884118005327,0.012154742249450332,10.921660811093766,0.6020223153716846
39.0,20.407903355005462,0.42101923363512156,0.012149680090297372,10.92115798087983,0.6020316605929809
40.0,20.4115956744345,0.42119964475985605,0.012144619151582709,10.920655156868483,0.6020409968809377
41.0,20.41528768129458,0.42138007448802933,0.01213955943310965,10.920152339121085,0.6020503934542478
42.0,20.41897937507837,0.4215605227533712,0.012134500934514335,10.919649527699006,0.6020599089243134
43.0,20.422670755278375,0.42174098948957406,0.012129443655291753,10.919146722663633,0.6020694465676076
44.0,20.426361821386926,0.4219214746302851,0.012124387594818008,10.918643924076369,0.6020790699737747
45.0,20.430052572896138,0.4221019781091179,0.012119332752369314,10.918141131998635,0.6020886763379129
46.0,20.433743009297952,0.42228249985964017,0.012114279127137917,10.917638346491875,0.6020982240610513
47.0,20.43743313008413,0.42246303981537947,0.012109226718245878,10.917135567617557,0.6021077309064521
48.0,20.44112293474624,0.42264359790982936,0.012104175524756547,10.916632795437172,0.602117234071544
49.0,20.444812422775655,0.42282417407643663,0.012099125532922679,10.9161300300122,0.6021267164751007
50.0,20.44850159366357,0.42300476824860594,0.012094076621043824,10.91562727140375,0.6021361475575883
51.0,20.45219044690097,0.4231853803597148,0.012089028769626866,10.915124519674647,0.6021455694295741
52.0,20.455878981978685,0.423366010343079,0.01208398203329328,10.914621774887232,0.6021550114872732
53.0,20.45956719838731,0.4235466581319957,0.01207893650354355,10.914119037103077,0.6021643260321282
54.0,20.463255095617292,0.423727323659705,0.012073892087179364,10.913616306382831,0.6021735245518894
55.0,20.46694267315887,0.4239080068594143,0.012068848582669779,10.913113582789531,0.6021826525524865
56.0,20.470629930502078,0.4240887076642941,0.012063806249312678,10.912610866385203,0.602191679243833
57.0,20.47431686713679,0.42426942600746975,0.012058765121714745,10.91210815723148,0.602200738471113
58.0,20.478003482552666,0.4244501618220249,0.012053725190179415,10.911605455390001,0.602209891048279
59.0,20.481689776239193,0.42463091504101286,0.012048686283678221,10.911102760921963,0.6022190089493896
60.0,20.485375747685648,0.4248116855974289,0.012043648582855646,10.91060007388909,0.6022280083263912
61.0,20.489061396381146,0.42499247342425134,0.012038612087388783,10.910097394353137,0.602236828907614
62.0,20.492746721814584,0.4251732784544007,0.01203357669475687,10.909594722376298,0.6022456992271278
63.0,20.496431723474693,0.42535410062076656,0.012028542420588286,10.909092058020708,0.6022547292828145
64.0,20.50011640085,0.4255349398561965,0.01202350935446778,10.908589401348172,0.6022636416852084
65.0,20.503800753428855,0.42571579609350446,0.01201847749632647,10.908086752420527,0.6022724342780217
66.0,20.507484780699397,0.4258966692654515,0.012013446846097212,10.907584111299643,0.6022810622801217
67.0,20.511168482149614,0.4260775593047718,0.012008417403715438,10.907081478047424,0.6022896212933405
68.0,20.514851857267278,0.4262584661441586,0.01200338916912018,10.906578852725806,0.602298679694063
69.0,20.51853490553999,0.42643938971625944,0.011998362073151145,10.90607623539684,0.6023078037603118
70.0,20.522217626455156,0.426620329953689,0.01199333612718592,10.905573626122589,0.60231685925551
71.0,20.5259000195,0.4268012867890265,0.011988311393468136,10.905071024965073,0.6023257694794271
72.0,20.529582084161568,0.426982260154801,0.011983287872041134,10.904568431986348,0.6023345795996822
73.0,20.533263819926702,0.4271632499835101,0.011978265562950332,10.904065847248505,0.6023431925842105
74.0,20.536945226282075,0.427344256207617,0.011973244466243458,10.903563270813663,0.6023516254368829
75.0,20.540626302714173,0.4275252787595409,0.011968224581971137,10.90306070274398,0.6023599665305408
76.0,20.544307048709292,0.4277063175716596,0.011963205910186951,10.902558143101647,0.6023681992557046
77.0,20.54798746375355,0.42788737257631854,0.011958188450947848,10.90205559194889,0.6023763863104645
78.0,20.551667547332887,0.4280684437058279,0.011953172204314499,10.901553049347964,0.6023845126369544
79.0,20.555347298933047,0.42824953089244805,0.01194815717035133,10.901050515361165,0.6023926605491229
80.0,20.5590267180396,0.4284306340684157,0.011943143349126663,10.900547990050816,0.6024007889115222
81.0,20.562705804137934,0.4286117531659155,0.011938130740713032,10.90004547347928,0.6024088845882055
82.0,20.566384556713256,0.428792888117108,0.011933119345187058,10.899542965708948,0.6024169782255059
83.0,20.570062975250593,0.4289740388541079,0.011928109162629657,10.899040466802251,0.6024254853340695
84.0,20.573741059234784,0.4291552053089956,0.011923100193126087,10.898537976821652,0.6024341133180932
85.0,20.57741880815049,0.4293363874138119,0.011918092436765844,10.898035495829644,0.6024427289177737
86.0,20.58109622148221,0.42951758510056176,0.011913085893642816,10.89753302388876,0.6024513003121182
87.0,20.584773298714232,0.42969879830121527,0.011908080563855242,10.897030561061563,0.6024604507384556
88.0,20.588450039330695,0.4298800269476974,0.011903076447505621,10.89652810741065,0.6024697354146059
89.0,20.592126442815548,0.43006127097191027,0.011898073544700762,10.896025662998653,0.6024787186837973
90.0,20.595802508652554,0.4302425303057058,0.011893071855551631,10.895523227888237,0.6024873028089731
91.0,20.599478236325307,0.4304238048809048,0.01188807138017343,10.895020802142104,0.6024958017886439
92.0,20.603153625317233,0.430605094629295,0.011883072118685393,10.894518385822984,0.6025043243042626
93.0,20.606828675111565,0.43078639948262026,0.011878074071210802,10.894015978993643,0.6025127759476543
94.0,20.61050338519136,0.4309677193725913,0.011873077237876886,10.893513581716885,0.60252125700878
95.0,20.61417775503952,0.4311490542308867,0.011868081618814637,10.89301119405554,0.602529367834469
96.0,20.617851784138757,0.4313304039891415,0.01186308721415879,10.892508816072477,0.6025372534484325
97.0,20.621525471971598,0.4315117685789642,0.011858094022311982,10.892006447830598,0.6025454899880509
98.0,20.62519881802041,0.43169314793191815,0.011853102040704387,10.891504089392837,0.6025540342733909
99.0,20.628871821767397,0.4318745419795364,0.011848111265175546,10.891001740822153,0.6025624910638517
100.0,20.632544482694563,0.43205595065331154,0.011843121692458172,10.890499402181522,0.6025707406094615
101.0,20.636216800283762,0.4322373738847057,0.011838133322845747,10.88999707353396,0.6025787997046294
102.0,20.639888774016658,0.432418811605148,0.011833146156648242,10.889494754942511,0.6025867472724227
103.0,20.643560403374753,0.4326002637460194,0.011828160194192019,10.888992446470253,0.6025949522136417
104.0,20.647231687839373,0.4327817302386838,0.01182317543581975,10.888490148180294,0.6026033563838316
105.0,20.650902626891686,0.43296321101445373,0.011818191878605831,10.887987860135814,0.6026125517590037
106.0,20.654573220012672,0.4331447060046149,0.011813209521710232,10.88748558240004,0.6026223142844942
107.0,20.658243466683153,0.43332621514042186,0.011808228365545995,10.886983315036225,0.6026321501851938
108.0,20.661913366383775,0.43350773835308093,0.011803248410545626,10.886481058107664,0.602641673629934
109.0,20.665582918595014,0.4336892755737784,0.01179826965716061,10.885978811677674,0.6026508704396049
110.0,20.669252122797182,0.43387082673366173,0.01179329210586142,10.885476575809609,0.6026598045396006
111.0,20.672920978470426,0.4340523917638361,0.011788315757137032,10.88497435056685,0.602668485391571
112.0,20.676589485094716,0.43423397059538554,0.011783340611494735,10.884472136012814,0.6026779822903856
113.0,20.680257642149865,0.43441556315934754,0.011778366669459764,10.883969932210949,0.6026878913221003
114.0,20.683925449115506,0.4345971693867326,0.011773393925508751,10.88346773922474,0.6026976933824704
115.0,20.68759290547112,0.43477878920851804,0.01176842237619492,10.882965557117707,0.6027071496078104
116.0,20.691260010696016,0.43496042255564404,0.011763452022118526,10.882463385953404,0.602716306952055
117.0,20.694926764269333,0.43514206935901617,0.011758482863904596,10.88196122579541,0.6027253714818096
118.0,20.69859316567006,0.4353237295495125,0.01175351490164243,10.881459076707335,0.6027344059592467
119.0,20.702259214377005,0.435505403057972,0.011748548135747822,10.880956938752812,0.6027432784282981
120.0,20.705924909868813,0.4356870898152021,0.011743582567019437,10.880454811995504,0.6027520412591951
121.0,20.70959025162399,0.4358687897519755,0.011738618196276501,10.879952696499108,0.6027607649773238
122.0,20.71325523912084,0.43605050279903557,0.011733655022003825,10.879450592327334,0.6027694897201906
123.0,20.716919871837547,0.4362322288870888,0.011728693044736123,10.87894849954392,0.6027783264805091
124.0,20.72058414925209,0.43641396794681314,0.011723732265369836,10.878446418212636,0.6027871837628033
125.0,20.72424807084232,0.43659571990884904,0.011718772684820904,10.877944348397278,0.6027958715637346
126.0,20.727911636085917,0.4367774847038093,0.011713814304024002,10.877442290161676,0.6028044333398563
127.0,20.731574844460393,0.4369592622622669,0.011708857123931455,10.876940243569685,0.602812971584257
128.0,20.73523769544311,0.4371410525147705,0.011703901145512362,10.876438208685192,0.6028214696389121
129.0,20.738900188511266,0.43732285539183113,0.011698946369751658,10.875936185572115,0.6028299377735727
130.0,20.742562323141893,0.43750467082393213,0.011693992796406694,10.875434174294401,0.6028384072308562
131.0,20.746224098811883,0.43768649874152205,0.011689040425150624,10.874932174916035,0.6028464787461684
132.0,20.74988551499795,0.4378683390750145,0.011684089257032052,10.874430187501032,0.6028539063241013
133.0,20.75354657117667,0.4380501917547987,0.011679139293113877,10.873928212113434,0.6028609809233741
134.0,20.757207266824437,0.43823205671122656,0.011674190534471952,10.87342624881731,0.602868800371821
135.0,20.760867601417516,0.4384139338746202,0.011669242972871493,10.872924297676825,0.6028769339050449
136.0,20.764527574431998,0.43859582317527046,0.011664296608021929,10.872422358756179,0.6028848624948752
137.0,20.76818718534382,0.4387777245434344,0.011659351441060489,10.871920432119596,0.6028922153271206
138.0,20.77184643362877,0.4389596379093452,0.011654407462905568,10.87141851783131,0.6028989270431765
139.0,20.775505318762484,0.43914156320319697,0.011649464674680761,10.870916615955576,0.6029081737668359
140.0,20.77916384022044,0.4393235003551535,0.011644523077637123,10.870414726556676,0.6029163631014681
141.0,20.782821997477953,0.43950544929535545,0.011639582668842297,10.86991284969859,0.6029240797898526
142.0,20.786479790010198,0.4396874099539044,0.011634643419708416,10.86941098544302,0.6029324418963048
143.0,20.79013721729219,0.4398693822608764,0.011629705364823635,10.868909133854343,0.602940748815766
144.0,20.7937942787988,0.44005136614631235,0.011624768505587352,10.868407294996965,0.6029490208962689
145.0,20.79745097400473,0.440233361540231,0.011619832824006276,10.867905468933944,0.6029576485727686
146.0,20.801107302384555,0.44041536837261064,0.01161489832014783,10.867403655728335,0.6029662541784832
147.0,20.804763263412667,0.44059738657340475,0.011609964979946385,10.86690185544416,0.6029747665526975
148.0,20.808418856563343,0.44077941607253796,0.011605032840145144,10.866400068145937,0.6029835843899285
149.0,20.812074081310683,0.4409614567999063,0.011600101902290449,10.86589829389821,0.6029922800686601
150.0,20.815728937128664,0.44114350868536967,0.011595172167947209,10.865396532765553,0.6030008097894672
151.0,20.819383423491082,0.4413255716587631,0.011590243628137953,10.864894784812439,0.6030094363384159
152.0,20.823037539871617,0.44150764564989425,0.011585316268082112,10.864393050103176,0.6030178117789993
153.0,20.826691285743784,0.4416897305885333,0.01158039011576548,10.86389132870243,0.6030259302666586
154.0,20.83034466058095,0.4418718264044335,0.011575465172842343,10.863389620674884,0.6030345285273088
155.0,20.83399766385634,0.4420539330273064,0.011570541437803405,10.862887926085113,0.6030438880701782
156.0,20.83765029504304,0.44223605038683983,0.011565618910697234,10.862386244997637,0.603052713293785
157.0,20.84130255361398,0.44241817841269726,0.011560697597582204,10.861884577477184,0.6030614352176084
158.0,20.84495443904195,0.4426003170345076,0.011555777500161268,10.86138292358852,0.6030704774205361
159.0,20.84860595079959,0.4427824661818711,0.011550858620138939,10.860881283396433,0.6030797549381287
160.0,20.85225708835941,0.4429646257843655,0.011545940956458502,10.860379656965746,0.6030890593143288
161.0,20.85590785119376,0.4431467957715329,0.011541024505328281,10.859878044361322,0.603097933008341
162.0,20.85955823877486,0.44332897607289,0.011536109265390688,10.859376445648051,0.6031058391549745
163.0,20.863208250574775,0.443511166617925,0.011531195207051684,10.858874860890811,0.6031132626086374
164.0,20.86685788606545,0.4436933673361037,0.01152628236632423,10.858373290154546,0.6031207001162878
165.0,20.870507144718673,0.4438755781568573,0.01152137073607824,10.857871733504336,0.6031299924319354
166.0,20.874156026006084,0.44405779900958914,0.011516460300420445,10.857370191005481,0.6031393055405788
167.0,20.87780452939921,0.4442400298236788,0.011511551087520775,10.85686866272301,0.6031479683390205
168.0,20.88145265436941,0.44442227052847455,0.01150664307340482,10.856367148720905,0.6031558166132119
169.0,20.88510040038792,0.44460452105330384,0.011501736277485393,10.855865649063926,0.6031633594823406
170.0,20.88874776692584,0.4447867813274604,0.011496830709067627,10.855364163817205,0.6031708209911223
171.0,20.892394753454116,0.44496905128021297,0.01149192636830364,10.854862693045913,0.6031785749138682
172.0,20.896041359443565,0.4451513308408019,0.011487023256317163,10.85436123681524,0.6031864767589992
173.0,20.899687584364873,0.4453336199384435,0.011482121374832633,10.853859795190408,0.6031941738832448
174.0,20.90333342768858,0.44551591850232725,0.011477220725551917,10.853358368236664,0.6032016038552316
175.0,20.906978888885092,0.4456982264616143,0.011472321310152411,10.852856956019288,0.6032092577671812
176.0,20.91062396742469,0.4458805437454396,0.011467423130285136,10.85235555860359,0.6032170848087033
177.0,20.914268662777502,0.4460628702829123,0.011462526187292207,10.851854176054914,0.6032249638564827
178.0,20.91791297441354,0.4462452060031142,0.011457630481279442,10.851352808438667,0.6032328167270311
179.0,20.921556901802667,0.4464275508351027,0.011452736013824596,10.850851455820287,0.6032406620254674
180.0,20.925200444414628,0.446609904707909,0.01144784278647366,10.850350118265242,0.6032487715927681
181.0,20.928843601719024,0.44679226755053914,0.011442950800738969,10.849848795839032,0.6032567280190327
182.0,20.932486373185316,0.44697463929197,0.01143806005809774,10.849347488607183,0.6032646984151233
183.0,20.936128758282862,0.4471570198611576,0.011433170559990711,10.848846196635261,0.6032725122533031
184.0,20.93977075648086,0.4473394091870268,0.011428282307820557,10.848344919988856,0.6032801728073839
185.0,20.9434123672484,0.4475218071984832,0.01142339530295081,10.847843658733593,0.6032876328980706
186.0,20.947053590054413,0.4477042138244041,0.0114185095467043,10.847342412935129,0.6032949841475443
187.0,20.950694424367736,0.44788662899363896,0.011413625040362172,10.846841182659151,0.6033024393153257
188.0,20.95433486965705,0.44806905263502106,0.011408741785162725,10.84633996797138,0.6033098056602851
189.0,20.957974925390914,0.44825148467734954,0.011403859782300331,10.84583876893757,0.6033170962065638
190.0,20.961614591037776,0.44843392504940516,0.01139897903292446,10.845337585623504,0.603324094448857
191.0,20.965253866065932,0.44861637367993895,0.011394099538138679,10.844836418095003,0.6033308796246826
192.0,20.968892749943564,0.4487988304976828,0.01138922129900003,10.844335266417918,0.6033379577368202
193.0,20.97253124213872,0.44898129543133763,0.01138434431651798,10.843834130658133,0.6033446673509282
