k,PSNR,SSIM,mse,Log-Gradient,Angle
0.0,20.26425528204665,0.41402876209504486,0.0,10.940695019594461,0.6005770235118203
1.0,20.26739709335108,0.41417958993664156,0.01028082764318517,10.940265479048955,0.6016619782562574
2.0,20.27107437013051,0.41435782313223085,0.012203282107230116,10.939765943572201,0.6016706732389286
3.0,20.27477429813751,0.4145373069947785,0.012310552304017078,10.93926344501974,0.6016852032646548
4.0,20.278475530580863,0.41471690327773586,0.012317209735204294,10.938760732792177,0.601696267010357
5.0,20.28217637180387,0.4148965186335996,0.012313628733137148,10.938258030382894,0.6017111584665966
6.0,20.28587657198218,0.41507613870718413,0.01230809641755444,10.937755373623258,0.6017208011557843
7.0,20.28957608782694,0.4152557610098806,0.012302077590298414,10.937252770519443,0.601730590365636
8.0,20.293274906305715,0.41543538469550034,0.012295868218475569,10.936750224050023,0.601740307072815
9.0,20.29697302126253,0.41561500934422607,0.012289569789296968,10.936247735779137,0.6017500282104141
10.0,20.30067043012078,0.4157946347411328,0.012283226404600132,10.935745306484083,0.6017597583017399
11.0,20.304367131649723,0.41597426075042093,0.012276850730445342,10.935242936714605,0.6017695868329686
12.0,20.308063124661025,0.4161538872483301,0.012270453977530278,10.934740626870742,0.6017793072969648
13.0,20.31175840826723,0.4163335141256573,0.012264047119451378,10.93423837719876,0.6017889226290153
14.0,20.315452981842512,0.4165131413006386,0.012257629478098544,10.933736187941209,0.6017984425594797
15.0,20.319146844708488,0.4166927686802533,0.012251209060663595,10.933234059247603,0.6018078874413012
16.0,20.322839996335222,0.4168723961842738,0.012244788573379737,10.93273199123458,0.601817288433397
17.0,20.326532436208254,0.41705202373403,0.012238369013168483,10.932229983990425,0.6018266342172073
18.0,20.33022416379554,0.4172316512523975,0.012231947192823413,10.931728037614032,0.6018359559870163
19.0,20.333915178591614,0.4174112786616054,0.012225526792187271,10.931226152193261,0.6018452401584059
20.0,20.3376054800936,0.4175909058841702,0.012219106827257298,10.930724327826361,0.6018544073800433
21.0,20.341295067800644,0.4177705328428097,0.01221268642794096,10.93022256460522,0.601863515492889
22.0,20.344983941213325,0.41795015946040387,0.012206264989417043,10.929720862632548,0.6018726567341711
23.0,20.348672099833486,0.41812978565994824,0.012199845498946748,10.929219221991293,0.601882039181642
24.0,20.352359543163875,0.4183094113645331,0.012193427374523232,10.928717642765905,0.6018914580699263
25.0,20.35604627070803,0.41848903649731134,0.01218701129087104,10.928216125036679,0.6019008154359847
26.0,20.359732281970135,0.4186686609814961,0.012180597300375993,10.92771466888137,0.6019101165100106
27.0,20.36341757645491,0.41884828474034336,0.012174185767484899,10.927213274376962,0.6019194067104108
28.0,20.367102153667535,0.41902790769713655,0.012167775924871772,10.926711941602663,0.6019286176549393
29.0,20.3707860131136,0.41920752977520054,0.0121613686039053,10.926210670634582,0.6019377677295077
30.0,20.374469154299064,0.4193871508978622,0.012154963808524249,10.925709461548612,0.6019469918812729
31.0,20.37815157673019,0.419566770988485,0.012148561541185909,10.925208314420473,0.6019563159556234
32.0,20.38183327991357,0.4197463899704395,0.012142161803163133,10.924707229325746,0.6019656343839442
33.0,20.38551426335608,0.4199260077671075,0.012135764594775502,10.924206206339887,0.6019748596077494
34.0,20.389194526564836,0.420105624301889,0.012129369787600076,10.923705245534215,0.6019841642052529
35.0,20.39287406904723,0.4202852394981891,0.012122977367228262,10.92320434698206,0.6019934445391012
36.0,20.39655289031088,0.42046485327941935,0.0121165868644102,10.922703510767938,0.6020028443588362
37.0,20.40023098986017,0.4206444655687656,0.012110198036686051,10.922202736969888,0.6020121955670927
38.0,20.403908367198703,0.42082407628934376,0.012103811212053448,10.921702025660496,0.6020215366908528
39.0,20.407585021835022,0.4210036853646118,0.012097426614559138,10.921201376914128,0.6020308442633724
40.0,20.411260953277907,0.42118329271803406,0.012091044509347273,10.920700790805594,0.6020401345960337
41.0,20.414936161036348,0.42136289827307866,0.012084664895838931,10.92020026740966,0.6020494833492003
42.0,20.41861064461955,0.42154250195321813,0.012078287773288142,10.919699806801065,0.6020589407661849
43.0,20.422284403536946,0.4217221036819357,0.01207191314080787,10.919199409054517,0.6020684300714961
44.0,20.425957437298173,0.4219017033827184,0.012065540997392345,10.918699074244705,0.602078001370186
45.0,20.429629745413077,0.4220813009790552,0.012059171341936062,10.918198802446286,0.6020875627888942
46.0,20.433301327391746,0.4222608963944485,0.012052804173249648,10.917698593733903,0.6020970613452262
47.0,20.436972182744437,0.42244048955240254,0.012046439490073831,10.917198448182175,0.6021065322488909
48.0,20.440642310981655,0.42262008037642035,0.012040077291090735,10.916698365865704,0.6021159712543366
49.0,20.444311711614095,0.4227996687900272,0.012033717562717726,10.916198346859037,0.6021254115881354
50.0,20.44798038415267,0.4229792547167386,0.012027360181110242,10.91569839123631,0.6021347968943983
51.0,20.451648328108504,0.423158838080087,0.012021005124120953,10.915198499073355,0.6021441552888767
52.0,20.45531554299293,0.42333841880359874,0.012014652452163365,10.914698670445421,0.6021535531928767
53.0,20.4589820283175,0.42351799681081986,0.012008302253670299,10.914198905426982,0.6021628355545018
54.0,20.462647783593965,0.4236975720252922,0.012001954433677011,10.913699204091516,0.6021719895614586
55.0,20.4663128083343,0.4238771443705686,0.011995608784775253,10.913199566514974,0.602181074826382
56.0,20.469977102050684,0.4240567137702123,0.011989265579383589,10.91269999277206,0.602190065831245
57.0,20.473640664255512,0.42423628014778103,0.011982924845112354,10.912200482937127,0.6021990280614192
58.0,20.47730349446139,0.4244158434268515,0.011976586567753725,10.911701037084484,0.6022081241420195
59.0,20.480965592181143,0.42459540353100356,0.011970250583360825,10.91120165528797,0.6022171842603593
60.0,20.484626956927798,0.42477496038381685,0.011963917068872095,10.910702337621897,0.6022261657358867
61.0,20.488287588214607,0.42495451390889194,0.011957586023586422,10.91020308416057,0.6022349556230645
62.0,20.491947485555034,0.4251340640298238,0.011951257337595401,10.909703894978708,0.6022437186587986
63.0,20.49560664846275,0.4253136106702203,0.011944931039091642,10.909204770150886,0.602252682684188
64.0,20.49926507645165,0.425493153753699,0.01193860721135366,10.908705709751318,0.6022615538054756
65.0,20.502922769035848,0.4256726932038775,0.011932285853936441,10.908206713854213,0.6022703133058386
66.0,20.506579725729665,0.42585222894439,0.011925966966396829,10.907707782533768,0.602278923563417
67.0,20.51023594604765,0.42603176089887335,0.011919650548294632,10.907208915864167,0.6022873522732773
68.0,20.51389142950456,0.4262112889909751,0.011913336599193546,10.906710113919587,0.6022962763747607
69.0,20.517546175615383,0.426390813144349,0.011907025034151026,10.906211376774289,0.6023052992612973
70.0,20.521200183895324,0.4265703332826602,0.011900715893909295,10.905712704502466,0.6023143296887242
71.0,20.52485345385979,0.42674984932957666,0.011894409226001459,10.905214097178249,0.6023231954788736
72.0,20.528505985024452,0.4269293612087801,0.011888105030096564,10.904715554875747,0.6023319776020625
73.0,20.53215777690515,0.42710886884396176,0.01188180330586598,10.904217077669069,0.602340566729337
74.0,20.535808829017984,0.4272883721588168,0.011875504052983715,10.903718665632308,0.6023489953698272
75.0,20.539459140879263,0.42746787107705564,0.01186920727112687,10.903220318839548,0.6023572781227978
76.0,20.543108712005527,0.4276473655223921,0.01186291295997597,10.902722037364862,0.6023654836706094
77.0,20.546757541913536,0.42782685541855586,0.01185662111921515,10.90222382128231,0.6023736054199865
78.0,20.550405630120263,0.42800634068927973,0.01185033174853258,10.901725670665945,0.6023816756060604
79.0,20.554052976142927,0.4281858212583099,0.011844044847620413,10.901227585589806,0.6023897290895173
80.0,20.557699579498966,0.4283652970494045,0.011837760416175206,10.900729566127922,0.6023978110895679
81.0,20.561345439706038,0.4285447679863233,0.011831478453897816,10.900231612354311,0.6024058405822418
82.0,20.564990556282044,0.4287242339928507,0.011825198960493714,10.89973372434298,0.6024138129401162
83.0,20.568634928745094,0.4289036949927665,0.011818921935672792,10.899235902167925,0.60242203690782
84.0,20.572278556613554,0.42908315090987054,0.011812647379149695,10.898738145903133,0.6024306195778021
85.0,20.57592143940598,0.42926260166796965,0.011806375290643626,10.898240455622572,0.6024391595364492
86.0,20.57956357664121,0.42944204719088175,0.01180010566987846,10.89774283140021,0.6024476631945962
87.0,20.583204967838256,0.42962148740243883,0.011793838516582753,10.897245273309993,0.6024563927340555
88.0,20.58684561251642,0.4298009222264796,0.011787573830489628,10.89674778142586,0.6024656250217613
89.0,20.590485510195187,0.42998035158685877,0.011781311611336833,10.896250355821742,0.6024746856847827
90.0,20.594124660394307,0.43015977540743827,0.01177505185886662,10.895752996571554,0.6024833357726007
91.0,20.597763062633753,0.4303391936120911,0.011768794572825775,10.895255703749196,0.6024917531918949
92.0,20.60140071643373,0.4305186061247071,0.01176253975296546,10.894758477428564,0.6025001697415219
93.0,20.605037621314693,0.4306980128691875,0.011756287399041148,10.894261317683535,0.6025085609173116
94.0,20.608673776797307,0.4308774137694398,0.011750037510812602,10.89376422458798,0.6025169730156467
95.0,20.612309182402498,0.43105680874939223,0.011743790088043712,10.893267198215751,0.6025252091345367
96.0,20.615943837651418,0.43123619773297506,0.011737545130502465,10.892770238640693,0.6025330574203922
97.0,20.619577742065466,0.4314155806441418,0.011731302637769314,10.892273345936637,0.6025408941248274
98.0,20.62321089516626,0.4315949574068531,0.01172506260538396,10.891776520177402,0.6025492975725034
99.0,20.62684329647569,0.43177432794508097,0.011718825032126106,10.891279761436792,0.6025577270446328
100.0,20.63047494551586,0.4319536921828185,0.011712589911090395,10.89078306978858,0.6025659939187845
101.0,20.634105841809117,0.43213305004406016,0.011706357242201265,10.89028644530652,0.6025740827539237
102.0,20.637735984878066,0.4323124014528219,0.011700127025399906,10.889789888064364,0.60258194506891
103.0,20.64136537424554,0.43249174633313586,0.011693899260644004,10.88929339813584,0.6025899144277701
104.0,20.64499400943462,0.43267108460904025,0.011687673947907661,10.888796975594662,0.60259807039186
105.0,20.648621889968627,0.4328504162045905,0.011681451085866077,10.888300620514553,0.6026065329448114
106.0,20.652249015371137,0.4330297410438539,0.011675230671369712,10.88780433296925,0.6026159895211919
107.0,20.65587538516596,0.4332090590509184,0.011669012704462559,10.887308113032477,0.6026256757107856
108.0,20.659500998877157,0.43338837014988013,0.011662797185208008,10.886811960777946,0.6026353131254168
109.0,20.66312585602903,0.4335676742648518,0.01165658411368873,10.886315876279353,0.6026446052126828
110.0,20.66674995614615,0.4337469713199589,0.011650373490006317,10.885819859610377,0.6026535932739532
111.0,20.670373298753297,0.43392626123934747,0.011644165314280997,10.885323910844683,0.6026623362932682
112.0,20.67399588337554,0.4341055439471712,0.011637959586651384,10.88482803005592,0.6026709292857914
113.0,20.677617709538172,0.4342848193676025,0.011631756307274142,10.884332217317723,0.6026805629838896
114.0,20.68123877676674,0.4344640874248313,0.011625555476323648,10.883836472703713,0.6026903526660972
115.0,20.68485908458706,0.43464334804305665,0.011619357084295123,10.883340796287502,0.6026999643827128
116.0,20.688478632525168,0.43482260114649923,0.01161316113114167,10.88284518814269,0.6027092165023752
117.0,20.692097420107388,0.43500184665939495,0.011606967617116732,10.882349648342862,0.6027181797297331
118.0,20.69571544686027,0.43518108450599247,0.011600776542269356,10.881854176961577,0.6027271439653822
119.0,20.69933271231062,0.43536031461055513,0.011594587906276894,10.881358774072378,0.6027360185421763
120.0,20.702949215985512,0.43553953689737107,0.01158840170956614,10.880863439748788,0.602744746018201
121.0,20.706564957412276,0.4357187512907364,0.011582217952584751,10.880368174064312,0.6027533862400751
122.0,20.71017993611847,0.4358979577149667,0.011576036634936853,10.879872977092434,0.6027619709854478
123.0,20.713794151631948,0.43607715609439196,0.011569857755308388,10.879377848906612,0.6027705858582463
124.0,20.717407603480783,0.43625634635336574,0.011563681314223476,10.878882789580285,0.602779309385055
125.0,20.721020291193337,0.43643552841625016,0.011557507312225901,10.87838779918687,0.6027880214893411
126.0,20.72463221429821,0.43661470220743154,0.011551335749878244,10.877892877799772,0.6027965725366413
127.0,20.728243372324272,0.4367938676513083,0.011545166627760936,10.877398025492374,0.6028050032820308
128.0,20.731853764800636,0.4369730246723001,0.011538999946471245,10.876903242338043,0.6028134129488649
129.0,20.735463391256708,0.4371521731948411,0.01153283570662252,10.876408528410128,0.6028217749261225
130.0,20.739072251222133,0.43733131314338386,0.011526673908842969,10.875913883781958,0.6028301142814624
131.0,20.742680344226812,0.43751044444240406,0.011520514551724027,10.875419308526851,0.602838446814178
132.0,20.74628766980092,0.4376895670163885,0.011514357635421565,10.874924802718112,0.6028463901248013
133.0,20.74989422747489,0.4378686807898446,0.01150820316062597,10.874430366429022,0.6028537132491645
134.0,20.75350001677943,0.4380477856872977,0.011502051128040874,10.873935999732847,0.6028606853814794
135.0,20.757105037245502,0.4382268816332964,0.011495901538382007,10.873441702702833,0.6028683331332004
136.0,20.760709288404335,0.4384059685524027,0.01148975438238865,10.872947475412268,0.6028763299281504
137.0,20.764312769787416,0.4385850463691992,0.011483609660225746,10.872453317934433,0.6028841682056173
138.0,20.767915480926526,0.4387641150082857,0.011477467372257064,10.871959230342583,0.6028914766639231
139.0,20.77151742135368,0.4389431743942836,0.011471327509504631,10.871465212709927,0.602897914960867
140.0,20.775118590601185,0.4391222244518341,0.011465190072827671,10.870971265109654,0.6029069330803961
141.0,20.7787189882016,0.43930126510559586,0.011459055063116274,10.870477387614931,0.6029151574854814
142.0,20.782318613687774,0.4394802962802496,0.011452922458745789,10.8699835802972,0.6029226330669427
143.0,20.785917466592807,0.4396593179004937,0.011446792266238124,10.869489843228367,0.6029308925893363
144.0,20.789515546450072,0.4398383298910469,0.0114406645027137,10.868996176481547,0.6029390428786331
145.0,20.79311285279322,0.4400173321766491,0.011434539169206582,10.868502580129837,0.6029471933780481
146.0,20.796709385156174,0.4401963246820582,0.011428416229873856,10.868009054243789,0.6029555945133197
147.0,20.800305143073118,0.44037530733205554,0.0114222957022517,10.867515598896032,0.6029640934653432
148.0,20.80390012607853,0.4405542800514417,0.011416177587260422,10.867022214159352,0.6029724475422862
149.0,20.807494333707144,0.44073324276503656,0.011410061905597707,10.866528900106758,0.6029810467060202
150.0,20.811087765493966,0.4409121953976826,0.011403948658438235,10.866035656811249,0.6029896465563064
151.0,20.814680420974305,0.4410911378742471,0.011397837846973949,10.865542484345797,0.602998059389422
152.0,20.81827229968372,0.44127007011961084,0.011391729446084062,10.865049382783049,0.6030064638569195
153.0,20.82186340115806,0.44144899205867927,0.01138562347126767,10.864556352195804,0.6030148585862346
154.0,20.825453724933432,0.441627903616381,0.011379519935286781,10.864063392656973,0.6030229337490546
155.0,20.829043270546258,0.44180680471766287,0.011373418839418163,10.863570504239455,0.6030308672392303
156.0,20.832632037533195,0.44198569528749904,0.011367320180662268,10.863077687015927,0.6030400709767054
157.0,20.83622002543123,0.44216457525088,0.01136122396087036,10.862584941059058,0.6030488774803365
158.0,20.839807233777584,0.4423434445328251,0.011355130184661732,10.862092266441643,0.6030574674887855
159.0,20.843393662109783,0.4425223030583663,0.011349038853356249,10.861599663236449,0.6030661363655128
160.0,20.846979309965636,0.44270115075256594,0.011342949968274096,10.861107131516228,0.6030752089947408
161.0,20.850564176883218,0.4428799875405036,0.011336863530733616,10.860614671353707,0.6030843246727984
162.0,20.854148262400912,0.44305881334728886,0.011330779534297038,10.860122282821612,0.6030933657074794
163.0,20.857731566057357,0.4432376280980468,0.011324697969457028,10.859629965992635,0.6031016203653442
164.0,20.8613140873915,0.4434164317179294,0.011318618820746923,10.859137720939424,0.603109118489283
165.0,20.86489582594257,0.44359522413211155,0.011312542116707052,10.858645547734639,0.603116335602898
166.0,20.868476781250067,0.4437740052657886,0.011306467843307823,10.858153446451091,0.6031241961956695
167.0,20.87205695285379,0.4439527750441845,0.011300395996985419,10.85766141716162,0.6031335486816948
168.0,20.87563634029383,0.4441315333925431,0.011294326599335647,10.857169459938813,0.6031424770061494
169.0,20.87921494311056,0.4443102802361309,0.011288259622377493,10.856677574854055,0.6031506713499951
170.0,20.88279276084464,0.4444890155002446,0.011282195092186385,10.85618576197972,0.6031582056636896
171.0,20.886369793037023,0.4446677391101986,0.01127613301475061,10.855694021388349,0.6031655734409781
172.0,20.889946039228946,0.4448464509913362,0.011270073389553117,10.855202353152478,0.6031728569400967
173.0,20.893521498961935,0.4450251510690164,0.011264016217120741,10.854710757344618,0.6031805951964514
174.0,20.897096171777818,0.44520383926863616,0.01125796149877858,10.854219234037252,0.6031882627359002
175.0,20.90067005721871,0.4453825155156066,0.011251909235828871,10.85372778330285,0.6031957403773273
176.0,20.904243154827018,0.4455611797353691,0.011245859429548984,10.853236405213854,0.6032029867966995
177.0,20.90781546414544,0.44573983185338806,0.01123981208118975,10.852745099842693,0.603210539292153
178.0,20.911386984716977,0.44591847179515504,0.011233767191973594,10.852253867261771,0.6032181892634715
179.0,20.914957716084913,0.4460970994861806,0.011227724762191055,10.851762707543493,0.6032259157824965
180.0,20.918527657792843,0.4462757148520103,0.011221684792179972,10.851271620760262,0.6032335858291408
181.0,20.922096809384634,0.4464543178182054,0.011215647283084837,10.85078060698446,0.6032412582702736
182.0,20.925665170404475,0.4466329083103651,0.011209612236016669,10.850289666288452,0.6032492337979342
183.0,20.929232740396834,0.4468114862540989,0.011203579652051572,10.849798798744581,0.603257017137841
184.0,20.932799518906492,0.4469900515750611,0.011197549532229395,10.849308004425172,0.6032648183754235
185.0,20.936365505478523,0.4471686041989125,0.011191521877552313,10.848817283402532,0.6032724653701351
186.0,20.939930699658298,0.4473471440513535,0.011185496688983642,10.848326635748945,0.6032799520310189
187.0,20.943495100991484,0.4475256710581092,0.011179473967446571,10.84783606153668,0.603287259386386
188.0,20.94705870902406,0.4477041851449257,0.011173453713823061,10.847345560837988,0.603294461584715
189.0,20.950621523302306,0.4478826862375869,0.01116743592895283,10.846855133725098,0.6033017534806434
190.0,20.954183543372785,0.4480611742618878,0.011161420613632227,10.846364780270221,0.6033089811499686
191.0,20.95774476878239,0.44823964914366354,0.011155407768613484,10.845874500545552,0.603316105912774
192.0,20.961305199078307,0.44841811080877303,0.011149397394603657,10.845384294623265,0.6033230108635285
193.0,20.964864833808008,0.44859655918310226,0.011143389492263968,10.84489416257552,0.6033296077850004
