k,PSNR,SSIM,mse,Log-Gradient,Angle
0.0,20.26425528204665,0.41402876209504486,0.0,10.940695019594461,0.6005770235118203
1.0,20.267397651814502,0.4141796167489322,0.010282654858619867,10.940265402692825,0.6016619799181945
2.0,20.271076140858682,0.41435790845978965,0.01220725498056449,10.939765702023541,0.6016706776422439
3.0,20.274777939151875,0.41453748278560315,0.012316705124302307,10.939262948869832,0.6016852107637688
4.0,20.278481700295607,0.4147172015206076,0.012325547996775486,10.93875989255398,0.601696285669072
5.0,20.28218572872874,0.41489697134167197,0.012324152139315538,10.938256756530466,0.6017111832461399
6.0,20.28588977467855,0.41507677791544456,0.012320803556843951,10.937753576598142,0.601720836508763
7.0,20.289593794899766,0.41525661877464176,0.012316966741328287,10.93725036073218,0.6017306371832698
8.0,20.29329777640089,0.4154364930942207,0.01231293756986855,10.936747111880743,0.601740367006744
9.0,20.297001713065264,0.41561640047536247,0.012308817487492192,10.936243831577894,0.6017501012046939
10.0,20.30070560235455,0.4157963407240621,0.012304650576198294,10.93574052057108,0.6017598470705962
11.0,20.304409443075627,0.4159763137253573,0.012300449497103273,10.935237179380326,0.6017696928894216
12.0,20.308113234077013,0.4161563193762468,0.0122962254528429,10.934733808376087,0.6017794331312366
13.0,20.3118169745075,0.4163363575882241,0.012291989409593806,10.93423040777513,0.601789069405737
14.0,20.315520663776823,0.4165164283001401,0.012287740687997624,10.933726977790608,0.6017986119582779
15.0,20.319224301241565,0.41669653143952795,0.012283487290057522,10.933223518542714,0.6018080828186724
16.0,20.32292788640614,0.4168766669466449,0.012279231920318526,10.93272003011883,0.6018175091649002
17.0,20.326631418789873,0.41705683476324285,0.012274975575990893,10.932216512578048,0.6018268853094759
18.0,20.330334897893856,0.4172370348325413,0.012270715073520563,10.931712965990123,0.6018362361965551
19.0,20.334038323245217,0.41741726709706056,0.01226645408847256,10.931209390413835,0.6018455506480778
20.0,20.33774169437305,0.4175975314995261,0.012262191638456885,10.930705785918422,0.6018547470737148
21.0,20.341445010807853,0.4177778279828099,0.012257926859416856,10.93020215256679,0.6018638891070958
22.0,20.345148272081012,0.4179581564898762,0.012253659138296371,10.929698490432795,0.601873075999964
23.0,20.348851477724523,0.41813851696373466,0.012249391464272832,10.929194799570546,0.6018825060471084
24.0,20.35255462727074,0.4183189093474167,0.012245123254650847,10.928691080035732,0.601891963749044
25.0,20.35625772025217,0.41849933358396657,0.012240855185020064,10.928187331879926,0.6019013622801349
26.0,20.359960756201396,0.41867978961640057,0.012236587307371835,10.927683555152246,0.6019107049120026
27.0,20.3636637346509,0.41886027738772585,0.012232319988916449,10.927179749901065,0.601920038532957
28.0,20.367366655133065,0.4190407968409044,0.012228052458288311,10.926675916177066,0.6019292914952891
29.0,20.37106951718006,0.41922134791886045,0.012223785548604883,10.926172054027884,0.6019384857335884
30.0,20.37477232032383,0.419401930564474,0.01221951926422187,10.925668163500994,0.6019477764789064
31.0,20.37847506409602,0.41958254472057405,0.012215253608014903,10.925164244643758,0.601957155299565
32.0,20.382177748027996,0.41976319032994125,0.012210988581676203,10.924660297503454,0.6019665204125767
33.0,20.385880371650806,0.4199438673352933,0.01220672418594561,10.924156322127299,0.6019758016098841
34.0,20.38958293449515,0.42012457567929445,0.012202460293512053,10.923652318558425,0.6019851626588156
35.0,20.39328543609137,0.4203053153045528,0.012198196890177702,10.92314828684204,0.6019945149930739
36.0,20.396987875969465,0.4204860861536133,0.012193933514287962,10.922644227034533,0.6020039735491453
37.0,20.40069025365557,0.42066688816871983,0.012189669913872835,10.922140139186,0.6020133809104626
38.0,20.404392568674425,0.42084772129198794,0.012185406426972162,10.921636023341085,0.6020227833331199
39.0,20.40809482055513,0.4210285854657943,0.012181143265692486,10.921131879546262,0.6020321510609922
40.0,20.411797008826387,0.42120948063246183,0.012176880700631514,10.920627707848505,0.6020415161260092
41.0,20.415499133016514,0.42139040673424083,0.012172618731633148,10.920123508294818,0.6020509404950326
42.0,20.419201192653436,0.421571363713328,0.01216835735837412,10.91961928093223,0.60206049133439
43.0,20.42290318726468,0.4217523515118497,0.012164096580389899,10.919115025807802,0.6020700588534061
44.0,20.426605116377395,0.4219333700718714,0.012159836397096916,10.918610742968626,0.602079712186813
45.0,20.43030697951831,0.42211441933539257,0.012155576807811633,10.91810643246184,0.60208934593706
46.0,20.434008776213773,0.42229549924435156,0.012151317811766368,10.91760209433461,0.6020989229416133
47.0,20.43771050598973,0.4224766097406274,0.012147059408123113,10.91709772863415,0.6021084513735979
48.0,20.441412168371713,0.4226577507660172,0.01214280159598506,10.916593335407715,0.6021179924561407
49.0,20.44511376288486,0.42283892226227743,0.012138544361318773,10.916088914702554,0.602127502035953
50.0,20.448815289053908,0.4230201241710832,0.012134287583517147,10.915584466565582,0.6021369608406909
51.0,20.452516746403184,0.42320135643405127,0.012130031244489303,10.915079991045415,0.6021464202279826
52.0,20.456218134456613,0.423382618992739,0.012125775395199203,10.914575488190241,0.6021558869987936
53.0,20.45991945273773,0.42356391178862546,0.012121520128796016,10.914070958047484,0.6021652213147032
54.0,20.46362070076964,0.4237452347631426,0.012117265352949111,10.913566400663656,0.6021744489913475
55.0,20.46732187807506,0.42392658785764437,0.012113010869464001,10.913061816087632,0.6021836015796996
56.0,20.4710229841763,0.42410797101342723,0.012108756929585745,10.912557204367378,0.6021926510386537
57.0,20.474724018595253,0.42428938417172185,0.01210450357192462,10.912052565550448,0.6022017696702088
58.0,20.47842498085341,0.42447082727369323,0.012100250789295998,10.911547899684425,0.6022109507767999
59.0,20.482125870471872,0.4246523002604488,0.012095998406243102,10.911043206816453,0.6022201044157097
60.0,20.48582668697131,0.4248338030730208,0.012091746605440202,10.910538486994227,0.6022291145132953
61.0,20.489527429872,0.425015335652386,0.01208749538660186,10.91003374026549,0.6022379582586798
62.0,20.493228098693805,0.42519689793945276,0.012083244651432791,10.909528966678431,0.6022469005540148
63.0,20.49692869295619,0.4253784898750643,0.012078994407867031,10.90902416628122,0.6022559596304666
64.0,20.500629212178197,0.42556011140000866,0.012074744749067407,10.908519339121709,0.6022648972230679
65.0,20.50432965587848,0.4257417624549993,0.012070495675001305,10.908014485247795,0.6022737068250394
66.0,20.508030023575266,0.4259234429806881,0.01206624718563749,10.907509604707428,0.6022823435322535
67.0,20.5117303147864,0.42610515291766965,0.012061999280947092,10.907004697548608,0.6022910314054909
68.0,20.515430529029295,0.4262868922064662,0.012057751960904719,10.906499763819388,0.6023001282564643
69.0,20.51913066582098,0.4264686607875392,0.012053505165616889,10.905994803567943,0.6023093075733136
70.0,20.522830724678066,0.42665045860128886,0.0120492588886783,10.905489816842497,0.602318377297537
71.0,20.526530705116734,0.4268322855880505,0.012045013200956151,10.904984803691244,0.6023273151384155
72.0,20.530230606652804,0.42701414168808993,0.012040768102528512,10.904479764162426,0.6023361342049893
73.0,20.533930428801664,0.42719602684162244,0.01203652359347524,10.90397469830434,0.602344768572791
74.0,20.5376301710783,0.4273779409887835,0.012032279673878455,10.903469606165336,0.6023531974176497
75.0,20.541329832997285,0.42755988406965706,0.012028036343822653,10.902964487793813,0.6023615806119785
76.0,20.545029414072783,0.427741856024261,0.012023793603395323,10.902459343238228,0.6023698336990014
77.0,20.54872891381857,0.4279238567925486,0.012019551452686983,10.901954172547084,0.6023780574661347
78.0,20.55242833174801,0.42810588631440777,0.012015309891791604,10.901448975768941,0.6023862202394342
79.0,20.556127667374042,0.42828794452966484,0.0120110689208067,10.900943752952411,0.6023944236795401
80.0,20.55982692020921,0.4284700313780894,0.01200682853983348,10.900438504146159,0.6024025888326195
81.0,20.56352608976567,0.4286521467993718,0.012002588748977104,10.899933229398902,0.6024107112969779
82.0,20.567225175555144,0.42883429073315815,0.011998349548346566,10.89942792875941,0.6024188938029256
83.0,20.570924177088962,0.429016463119021,0.011994110938054952,10.898922602276505,0.6024275552043842
84.0,20.574623093878053,0.42919866389646827,0.011989872918219393,10.898417249999063,0.6024362313588443
85.0,20.578321925432927,0.42938089300495225,0.011985635488961114,10.897911871976014,0.6024448825132621
86.0,20.58202067126369,0.42956315038385906,0.01198139865040539,10.89740646825634,0.6024535547016665
87.0,20.585719330880057,0.4297454359725057,0.011977162402681662,10.896901038889075,0.6024629075468113
88.0,20.589417903791322,0.4299277497101596,0.01197292674592334,10.896395583923308,0.6024722017670807
89.0,20.593116389506385,0.4301100915360098,0.011968691680267955,10.89589010340818,0.6024811130070814
90.0,20.596814787533727,0.43029246138920135,0.011964457205856953,10.895384597392884,0.6024897009991911
91.0,20.60051309738144,0.43047485920879797,0.011960223322835684,10.894879065926668,0.6024982528400634
92.0,20.604211318557194,0.43065728493381444,0.011955990031353446,10.894373509058832,0.6025068119761668
93.0,20.607909450568272,0.43083973850319607,0.011951757331563149,10.89386792683873,0.6025153521557601
94.0,20.611607492921543,0.43102221985582956,0.011947525223621497,10.89336231931577,0.6025238048162885
95.0,20.615305445123468,0.4312047289305361,0.011943293707688723,10.892856686539409,0.6025318439568438
96.0,20.619003306680103,0.43138726566607727,0.011939062783928547,10.892351028559162,0.6025398028136985
97.0,20.622701077097116,0.431569830001151,0.011934832449844838,10.891845345424594,0.6025482950179516
98.0,20.62639875587974,0.43175242187439444,0.011930602703811554,10.891339637185327,0.6025568809360861
99.0,20.63009634253284,0.43193504122438275,0.011926373539710263,10.890833903891016,0.6025653262040201
100.0,20.633793836560855,0.43211768798962674,0.011922144956267741,10.890328145591365,0.602573578429532
101.0,20.637491237467813,0.4323003621085764,0.011917916953807367,10.889822362336131,0.6025816060341493
102.0,20.641188544757362,0.4324830635196233,0.01191368953266903,10.889316554175123,0.6025897067003735
103.0,20.644885757932727,0.43266579216109186,0.011909462693208788,10.8888107211582,0.6025980157075198
104.0,20.648582876496736,0.4328485479712498,0.011905236435798869,10.888304863335277,0.6026066392441979
105.0,20.65227989995181,0.43303133088830026,0.011901010756359466,10.88779898075637,0.602616299230567
106.0,20.655976827799975,0.4332141408503826,0.01189678565524654,10.88729307347155,0.6026261853750953
107.0,20.659673659542843,0.4333969777955801,0.011892561132902841,10.886787141530936,0.6026360010897126
108.0,20.663370394681635,0.4335798416619114,0.011888337189790436,10.886281184984703,0.6026454564712455
109.0,20.667067032717167,0.43376273238733526,0.011884113826390378,10.885775203883076,0.6026546036081977
110.0,20.67076357314984,0.4339456499097471,0.011879891043202417,10.885269198276333,0.6026634900659483
111.0,20.674460015479653,0.4341285941669861,0.01187566884074486,10.884763168214802,0.6026724085558941
112.0,20.678156359206223,0.43431156509681923,0.011871447219554099,10.88425711374886,0.6026823011015129
113.0,20.68185260382875,0.4344945626369672,0.011867226180184478,10.883751034928947,0.602692287882664
114.0,20.68554874884603,0.43467758672508067,0.011863005713317982,10.883244931805555,0.6027020387859453
115.0,20.68924479375646,0.43486063729874685,0.011858785819299233,10.882738804429232,0.6027114189670452
116.0,20.692940738058034,0.43504371429549965,0.011854566498759121,10.88223265285058,0.602720541352763
117.0,20.696636581248352,0.4352268176528089,0.011850347752353146,10.881726477120246,0.6027297176738642
118.0,20.700332322824604,0.4354099473080837,0.01184612958001032,10.881220277288925,0.6027387451221924
119.0,20.704027962283572,0.4355931031986706,0.011841911982389156,10.880714053407361,0.6027476139378329
120.0,20.70772349912165,0.43577628526186135,0.011837694960318798,10.880207805526346,0.6027564416354807
121.0,20.711418932834825,0.43595949343488133,0.011833478514104486,10.879701533696725,0.6027652202108353
122.0,20.71511426291869,0.4361427276548935,0.01182926264245592,10.879195237969377,0.602774065442034
123.0,20.718809488868416,0.43632598785901133,0.011825047346279717,10.878688918395234,0.602783040287996
124.0,20.7225046101788,0.43650927398427536,0.0118208326265028,10.878182575025276,0.6027918701733904
125.0,20.72619962634422,0.43669258596767585,0.011816618484071577,10.877676207910536,0.602800562067698
126.0,20.72989453685866,0.4368759237461373,0.01181240491995094,10.877169817102098,0.6028091680612858
127.0,20.733589341215705,0.437059287256526,0.01180819193512333,10.876663402651095,0.6028177871163088
128.0,20.737284038908538,0.4372426764356443,0.011803979530587866,10.87615696460871,0.6028263051311032
129.0,20.740978629429932,0.43742609122024473,0.01179976770735929,10.87565050302618,0.6028348971186198
130.0,20.74467311227228,0.43760953154700905,0.0117955564641679,10.875144017954796,0.6028432625865613
131.0,20.748367486927567,0.43779299735256677,0.011791345801766138,10.874637509445904,0.6028510158787922
132.0,20.75206175288736,0.437976488573482,0.011787135721232862,10.874130977550903,0.6028582472488991
133.0,20.755755909642865,0.4381600051462604,0.01178292622366098,10.873624422321239,0.6028657216237091
134.0,20.759449956684847,0.43834354700735395,0.011778717305661797,10.873117843808435,0.602873889761144
135.0,20.763143893503706,0.4385271140931495,0.01177450896203575,10.872611242064114,0.6028820616099974
136.0,20.766837719589418,0.43871070633997383,0.011770301193934457,10.872104617139941,0.6028897293827448
137.0,20.770531434431582,0.4388943236841005,0.011766093996772909,10.871597969087622,0.6028965278614659
138.0,20.774225037519372,0.4390779660617337,0.01176188736710042,10.871091297958897,0.6029052076427374
139.0,20.777918528341594,0.4392616334090303,0.011757681306177154,10.870584603805552,0.6029138476425552
140.0,20.78161190638663,0.4394453256620816,0.011753475815295397,10.870077886679429,0.6029215230867392
141.0,20.785305171142483,0.4396290427569161,0.011749270879764143,10.869571146631133,0.602929946841804
142.0,20.788998322096745,0.43981278462951384,0.011745066494831837,10.869064383710898,0.6029383128095708
143.0,20.792691358736608,0.43999655121578857,0.011740862683127433,10.868557597970717,0.6029466912377464
144.0,20.796384280548878,0.44018034245159265,0.011736659446091017,10.868050789462641,0.6029552846844431
145.0,20.800077087019954,0.4403641582727258,0.011732456752570498,10.867543958236421,0.6029640204956962
146.0,20.803769777635846,0.4405479986149332,0.011728254617385605,10.867037104343593,0.6029726054714576
147.0,20.807462351882158,0.4407318634138854,0.011724053036896914,10.866530227836034,0.6029814620927966
148.0,20.811154809244098,0.4409157526052132,0.01171985203598777,10.86602332876599,0.6029902965876539
149.0,20.814847149206482,0.4410996661244777,0.011715651616244186,10.86551640718576,0.602998935509647
150.0,20.818539371253713,0.44128360390718563,0.011711451779270302,10.86500946314769,0.6030076370620351
151.0,20.822231474869838,0.4414675658887813,0.011707252503306,10.864502496703889,0.6030161746709
152.0,20.825923459538465,0.4416515520046533,0.011703053799447615,10.863995507906646,0.6030243848195075
153.0,20.829615324742825,0.44183556219013936,0.011698855682698808,10.863488496808458,0.6030328226051472
154.0,20.833307069965752,0.4420195963805049,0.011694658154751635,10.862981463461878,0.6030424314610677
155.0,20.836998694689683,0.44220365451097227,0.011690461210100648,10.862474407919182,0.6030513822686625
156.0,20.840690198396665,0.4423877365166924,0.011686264856669792,10.861967330232957,0.6030601845092327
157.0,20.844381580568335,0.44257184233277075,0.011682069096752776,10.861460230455869,0.6030692650591555
158.0,20.84807284068595,0.44275597189424754,0.01167787393208841,10.86095310864063,0.603078639512348
159.0,20.85176397823037,0.4429401251361058,0.011673679363198087,10.860445964840006,0.6030880483228421
160.0,20.855454992682052,0.4431243019932727,0.011669485384693859,10.859938799106834,0.603097112491191
161.0,20.859145883521066,0.44330850240062136,0.011665291998332454,10.859431611494,0.6031051770680581
162.0,20.862836650227088,0.44349272629296355,0.011661099185080612,10.85892440205441,0.6031127039953323
163.0,20.8665272922794,0.4436769736050487,0.011656906950918172,10.858417170841031,0.6031202078068039
164.0,20.870217809156884,0.44386124427158363,0.01165271531406632,10.857909917906902,0.6031295101516984
165.0,20.873908200338036,0.44404553822720133,0.011648524250431594,10.857402643305406,0.6031389531442239
166.0,20.87759846530097,0.44422985540649185,0.011644333778294116,10.85689534708979,0.6031477509721619
167.0,20.881288603523373,0.4444141957439798,0.011640143898900022,10.856388029312818,0.6031557069103831
168.0,20.88497861448257,0.4445985591741332,0.011635954600011515,10.855880690026726,0.603163342122075
169.0,20.888668497655484,0.44478294563137055,0.011631765907101816,10.855373329284818,0.6031708959231421
170.0,20.892358252518648,0.4449673550500439,0.011627577820298583,10.85486594714047,0.6031787686659194
171.0,20.89604787854819,0.4451517873644582,0.011623390340492007,10.85435854364709,0.6031867674663719
172.0,20.89973737521985,0.445336242508853,0.011619203469427382,10.853851118858147,0.6031945468301088
173.0,20.90342674200899,0.4455207204174186,0.011615017208859017,10.853343672827158,0.6032020569628581
174.0,20.907115978390568,0.44570522102428517,0.011610831560517629,10.852836205607696,0.6032098691903232
175.0,20.91080508383915,0.44588974426352773,0.011606646526108473,10.852328717253382,0.6032177860089026
176.0,20.914494057828925,0.4460742900691661,0.011602462107092714,10.8518212078179,0.6032257755002765
177.0,20.918182899833667,0.4462588583751603,0.01159827830354475,10.851313677355021,0.6032337072400716
178.0,20.92187160932678,0.44644344911542083,0.011594095117098805,10.850806125918567,0.603241671584983
179.0,20.92556018578126,0.44662806222379586,0.01158991254935779,10.850298553562414,0.6032498991865869
180.0,20.929248628669725,0.4468126976340798,0.011585730601891449,10.8497909603405,0.6032579468296501
181.0,20.932936937464422,0.44699735528001466,0.011581549276234969,10.849283346306805,0.603266004779016
182.0,20.936625111637156,0.44718203509528215,0.011577368573887335,10.848775711515376,0.6032738893281918
183.0,20.940313150659385,0.44736673701351365,0.011573188496309906,10.848268056020311,0.6032816221784303
184.0,20.944001054002165,0.447551460968278,0.011569009044924956,10.84776037987576,0.6032891514637281
185.0,20.94768882113616,0.4477362068930955,0.011564830221114326,10.847252683135933,0.6032965745866296
186.0,20.95137645153165,0.44792097472142395,0.011560652026218284,10.846744965855095,0.6033041491113537
187.0,20.955063944658523,0.4481057643866744,0.011556474461534242,10.846237228087567,0.6033116053060571
188.0,20.958751299986282,0.4482905758222002,0.011552297528315643,10.84572946988773,0.6033189309833181
189.0,20.962438516984033,0.44847540896129406,0.011548121227770984,10.845221691310014,0.6033259237560283
190.0,20.966125595120502,0.4486602637372002,0.011543945561062738,10.844713892408913,0.6033328904050802
191.0,20.969812533864026,0.44884514008310467,0.011539770529306546,10.844206073238976,0.6033400020231824
192.0,20.97349933268255,0.4490300379321402,0.011535596133570261,10.843698233854811,0.6033467060031902
193.0,20.977185991043633,0.4492149572173834,0.011531422374873323,10.84319037431108,0.6033536253190345
