k,PSNR,SSIM,mse,Log-Gradient,Angle
0.0,20.26425528204665,0.41402876209504486,0.0,10.940695019594461,0.6005770235118203
1.0,20.267397591969637,0.41417961387573216,0.010282459054471378,10.940265410875137,0.6016619797401014
2.0,20.271075951098197,0.4143578993156451,0.012206829217025957,10.939765727909162,0.6016706771704093
3.0,20.274777548941643,0.41453746394597074,0.012316045690441048,10.939263002042601,0.601685209960169
4.0,20.278481039048202,0.41471716955603144,0.01232465426678458,10.938759982607657,0.601696283669334
5.0,20.282184725835286,0.4148969228195421,0.012323024107883879,10.938256893064503,0.6017111805906853
6.0,20.285888359513375,0.415076709400255,0.012319441338141713,10.937753769217014,0.6017208327194866
7.0,20.289591896821296,0.41525652682805453,0.012315370482767962,10.937250619045216,0.6017306321649144
8.0,20.2932953247519,0.4154363742750782,0.012311107428550062,10.93674744550206,0.6017403605821863
9.0,20.29699863717305,0.4156162513397104,0.012306753625080106,10.936244250126379,0.6017500933798526
10.0,20.30070183153105,0.41579615782514323,0.012302353156528063,10.935741033670357,0.6017598375543721
11.0,20.30440490661743,0.41597609361363236,0.01229791868458588,10.935237796658747,0.6017696815195231
12.0,20.308107861265494,0.41615605859939847,0.01229346141279888,10.934734539466717,0.6017794196406123
13.0,20.311810694608837,0.4163360526911526,0.012288992308184457,10.934231262315746,0.6017890536694026
14.0,20.31551340604208,0.4165160758249844,0.012284510691564103,10.933727965423689,0.6017985937960727
15.0,20.319215994906724,0.4166961279256622,0.012280024565542853,10.933224648915429,0.601808061869103
16.0,20.322918460692186,0.4168762089306914,0.012275536634892633,10.932721312883041,0.6018174854851474
17.0,20.326620802902816,0.4170563187790662,0.01227104789683892,10.932217957390304,0.6018268583865646
18.0,20.33032302102484,0.41723645741127413,0.012266555167482837,10.93171458251165,0.6018362060826857
19.0,20.334025114570515,0.41741662476708763,0.012262062122893613,10.931211188310545,0.6018455173552243
20.0,20.337727083054148,0.41759682078650545,0.012257567780554637,10.930707774860894,0.6018547106482661
21.0,20.3414289259915,0.417777045409673,0.012253071275809288,10.93020434223028,0.6018638490446423
22.0,20.3451306428993,0.41795729857683445,0.012248571996529626,10.929700890497216,0.6018730310414716
23.0,20.348832233294893,0.41813758022828584,0.012244072931733933,10.929197419720472,0.6018824559791243
24.0,20.352533696696078,0.4183178903043525,0.012239573498846842,10.928693929960398,0.6018919095227969
25.0,20.35623503262085,0.4184982287453753,0.01223507437341157,10.928190421273218,0.6019013036242233
26.0,20.35993624058733,0.41867859549168074,0.012230575607508124,10.927686893712695,0.6019106417961649
27.0,20.36363732011361,0.41885899048357694,0.012226077568096912,10.927183347331853,0.6019199707499382
28.0,20.367338270717717,0.41903941366134906,0.01222157948429146,10.926679782186014,0.601929219209864
29.0,20.37103909191755,0.4192198649652443,0.012217082189068161,10.926176198327445,0.6019384087156233
30.0,20.374739783230787,0.41940034433547096,0.012212585686784383,10.92567259580826,0.6019476923290983
31.0,20.37844034417493,0.4195808517121979,0.01220808998031738,10.925168974680446,0.6019570650816916
32.0,20.38214077426721,0.4197613870355408,0.012203595071360738,10.924665334995906,0.6019664253773254
33.0,20.38584107302462,0.4199419502455674,0.012199100960655684,10.92416167680648,0.6019757002772467
34.0,20.38954123996384,0.4201225412822991,0.012194607520818506,10.923658000159918,0.601985055548902
35.0,20.39324127460128,0.4203031600857002,0.01219011473767519,10.923154305106038,0.6019943996694045
36.0,20.39694117645302,0.4204838065956813,0.012185622148804757,10.922650591705848,0.6020038524084342
37.0,20.400640945031384,0.42066448075186463,0.01218112950330139,10.92214686001404,0.6020132534771757
38.0,20.40434057984733,0.4208451824937433,0.012176637138176192,10.921643110079858,0.6020226495357569
39.0,20.408040080416225,0.4210259117610764,0.012172145266860364,10.921139341954373,0.6020320108887428
40.0,20.411739446253108,0.4212066684935831,0.012167654159414181,10.920635555689154,0.60204136767994
41.0,20.415438676872704,0.4213874526309098,0.012163163815682767,10.920131751335793,0.6020507841326916
42.0,20.419137771789366,0.4215682641126522,0.01215867423534406,10.919627928945904,0.6020603246326363
43.0,20.422836730517147,0.4217491028783556,0.012154185417934713,10.919124088571126,0.6020698838715689
44.0,20.426535552569753,0.42192996886749773,0.01214969736287248,10.918620230263134,0.6020795285610644
45.0,20.430234237460546,0.4221108620195055,0.012145210069475098,10.918116354073629,0.6020891545854344
46.0,20.433932784702545,0.4222917822737462,0.012140723536976275,10.91761246005435,0.6020987231552036
47.0,20.437631193808432,0.42247272956953114,0.012136237764539396,10.917108548257076,0.6021082453757253
48.0,20.441329464290547,0.42265370384610995,0.012131752751269051,10.916604618733619,0.6021177757370789
49.0,20.445027595660882,0.4228347050426773,0.012127268483226383,10.916100671535785,0.6021272774413066
50.0,20.448725587431085,0.4230157330983717,0.012122784839504954,10.915596706715041,0.6021367284284216
51.0,20.45242343911246,0.42319678795226406,0.012118301801626225,10.915092724324554,0.6021461762316879
52.0,20.45612115021597,0.4233778695433886,0.012113819421611518,10.914588724417051,0.6021556366985206
53.0,20.459818720252215,0.42355897781070073,0.012109337792151975,10.914084707044491,0.6021649652578419
54.0,20.463516148731475,0.42374011269310824,0.012104856820682141,10.913580672257925,0.6021741847608576
55.0,20.467213435163664,0.42392127412945807,0.012100376308067217,10.913076620110768,0.6021833300093083
56.0,20.47091057905835,0.42410246205853924,0.012095896507865243,10.912572550655502,0.602192373366309
57.0,20.47460757992477,0.42428367641908454,0.01209141745755586,10.912068463944204,0.602201475110843
58.0,20.47830443727179,0.42446491714977186,0.012086939149250076,10.911564360028967,0.6022106480631688
59.0,20.482001150607964,0.42464618418921346,0.01208246140876843,10.91106023896145,0.6022197913572687
60.0,20.48569771944145,0.4248274774759699,0.012077984418218545,10.910556100793862,0.6022287982585762
61.0,20.489394143280112,0.4250087969485455,0.012073508177317125,10.910051945578447,0.6022376353912974
62.0,20.49309042163141,0.4251901425453841,0.012069032586575903,10.909547773367898,0.6022465562430265
63.0,20.496786554002515,0.42537151420487085,0.0120645576561376,10.909043584214876,0.6022556072731212
64.0,20.500482539900204,0.42555291186533856,0.012060083478156926,10.908539378171724,0.6022645384951429
65.0,20.504178378830925,0.4257343354650562,0.012055610052603836,10.908035155290827,0.6022733423398009
66.0,20.507874070300794,0.4259157849422424,0.012051137379449703,10.907530915624616,0.6022819776483977
67.0,20.511569613815553,0.42609726023505234,0.012046665458668455,10.907026659225568,0.6022906283981915
68.0,20.51526500888062,0.4262787612815917,0.012042194290237429,10.90652238614621,0.6022997144384947
69.0,20.518960255001044,0.4264602880198988,0.012037723811629436,10.906018096439189,0.6023088777871348
70.0,20.52265535168155,0.42664184038796193,0.012033254021531003,10.90551379015719,0.6023179434961102
71.0,20.52635029842651,0.4268234183237145,0.012028784988359398,10.905009467352864,0.6023268739918526
72.0,20.53004509473995,0.4270050217650256,0.012024316712195754,10.904505128078913,0.6023356905686922
73.0,20.533739740125547,0.42718665064971306,0.012019849193123083,10.90400077238808,0.6023443188630907
74.0,20.537434234086632,0.4273683049155393,0.012015382431226596,10.903496400333164,0.6023527486979909
75.0,20.54112857612619,0.4275499845002046,0.012010916426594156,10.902992011967006,0.6023611197787394
76.0,20.54482276574688,0.4277316893413561,0.012006451179316511,10.902487607342497,0.602369365820521
77.0,20.548516802450983,0.4279134193765846,0.012001986689487678,10.901983186512574,0.6023775793285112
78.0,20.552210685740455,0.42809517454342383,0.011997522957205095,10.901478749530225,0.6023857317380644
79.0,20.555904415116913,0.42827695477934924,0.011993059982569759,10.900974296448483,0.6023939196715448
80.0,20.55959799008161,0.42845876002178507,0.01198859776568665,10.900469827320434,0.6024020740530697
81.0,20.56329141013547,0.428640590208095,0.011984136306664527,10.899965342199206,0.6024101893954287
82.0,20.566984674779075,0.4288224452755863,0.011979675605616259,10.899460841137978,0.602418343665524
83.0,20.57067778351265,0.4290043251615157,0.01197521566265874,10.89895632418998,0.6024269637633607
84.0,20.574370735836087,0.42918622980307514,0.011970756477913042,10.898451791408485,0.6024356265431413
85.0,20.578063531248926,0.42936815913741033,0.011966298051504416,10.897947242846817,0.6024442654303375
86.0,20.581756169250372,0.42955011310160307,0.011961840383562232,10.897442678558349,0.6024528879160818
87.0,20.58544864933928,0.42973209163268566,0.011957383474220052,10.896938098596502,0.6024622045121294
88.0,20.589140971014174,0.4299140946676272,0.011952927323615612,10.896433503014743,0.6024715000750975
89.0,20.592833133773215,0.43009612214335263,0.011948471931890713,10.89592889186659,0.6024804306921387
90.0,20.596525137114252,0.43027817399672125,0.011944017299191206,10.895424265205609,0.6024890172216333
91.0,20.600216980534753,0.43046025016453887,0.011939563425666941,10.89491962308541,0.6024975504556158
92.0,20.603908663531875,0.4306423505835603,0.01193511031147168,10.894414965559658,0.6025061022703937
93.0,20.607600185602422,0.43082447519048234,0.011930657956763078,10.893910292682063,0.6025146171085736
94.0,20.61129154624286,0.43100662392194344,0.011926206361702505,10.893405604506382,0.6025230807832141
95.0,20.614982744949305,0.431188796714533,0.011921755526454948,10.892900901086422,0.60253113716281
96.0,20.61867378121754,0.4313709935047811,0.01191730545118903,10.89239618247604,0.6025390743784026
97.0,20.622364654543016,0.43155321422916687,0.011912856133678611,10.891891448729137,0.6025474936054365
98.0,20.626055364420814,0.4317354588241095,0.011908407572041141,10.891386699899664,0.6025560672223674
99.0,20.62974591034571,0.4319177272259764,0.011903959760730899,10.890881936041609,0.6025645181403333
100.0,20.633436291812114,0.43210001937107995,0.011899512697917985,10.890377157208997,0.6025727677323515
101.0,20.637126508314104,0.43228233519567705,0.01189506638393037,10.889872363455902,0.6025808067015247
102.0,20.64081655934543,0.43246467463597593,0.01189062081911261,10.889367554836445,0.6025888603626
103.0,20.64450644439948,0.43264703762811757,0.011886176003825466,10.888862731404796,0.6025971384242511
104.0,20.648196162969327,0.43282942410820263,0.011881731938445904,10.888357893215167,0.602605677466649
105.0,20.65188571454768,0.43301183401226667,0.011877288619237347,10.88785304032187,0.6026152235821814
106.0,20.65557509862694,0.4331942672762954,0.011872846046227008,10.88734817277927,0.6026250764250063
107.0,20.659264314699133,0.4333767238362256,0.011868404219862447,10.88684329064177,0.6026349050967008
108.0,20.662953362255973,0.4335592036279307,0.011863963140610518,10.886338393963827,0.6026443781451999
109.0,20.66664224078884,0.4337417065872369,0.011859522808957045,10.885833482799947,0.6026535346491974
110.0,20.67033094978875,0.43392423264991486,0.011855083225406687,10.885328557204675,0.6026624390852983
111.0,20.674019488746403,0.4341067817516768,0.01185064439048262,10.884823617232609,0.6026712141163599
112.0,20.677707857152157,0.43428935382818773,0.011846206304726199,10.88431866293839,0.602681052286215
113.0,20.681396054496037,0.43447194881505724,0.011841768968696731,10.883813694376709,0.6026910292785069
114.0,20.685084080267714,0.4346545666478388,0.01183733237417509,10.88330871160231,0.6027008038736846
115.0,20.68877193395654,0.4348372072620357,0.011832896520434556,10.882803714669992,0.6027102046455827
116.0,20.692459615051533,0.435019870593095,0.011828461408110558,10.882298703634591,0.6027193283066004
117.0,20.696147123041364,0.4352025565764122,0.011824027037863206,10.881793678550993,0.6027284741783633
118.0,20.69983445741436,0.4353852651473344,0.01181959340968001,10.881288639474127,0.6027375033672766
119.0,20.70352161765854,0.4355679962411401,0.011815160524164064,10.880783586458957,0.6027463733502596
120.0,20.707208603261567,0.4357507497930761,0.011810728382149195,10.8802785195605,0.602755186015031
121.0,20.71089541371078,0.435933525738319,0.01180629698419821,10.879773438833816,0.6027639333146949
122.0,20.71458204849316,0.43611632401200406,0.011801866328774958,10.87926834433399,0.6027727549978531
123.0,20.718268507095388,0.4362991445492035,0.011797436416790659,10.878763236116164,0.602781693993089
124.0,20.721954789003796,0.43648198728494575,0.011793007249176922,10.878258114235516,0.6027905336264043
125.0,20.725640893704366,0.4366648521542018,0.011788578826884817,10.877752978747273,0.6027992237809203
126.0,20.72932682068277,0.43684773909189273,0.011784151150883973,10.877247829706704,0.6028078070781816
127.0,20.733012569424332,0.4370306480328803,0.011779724222161666,10.876742667169127,0.6028164112733633
128.0,20.736698139414052,0.4372135789119896,0.011775298041721796,10.876237491189904,0.6028249137109726
129.0,20.74038353013659,0.4373965316639769,0.011770872610584033,10.875732301824444,0.6028334782029501
130.0,20.744068741076287,0.43757950622355346,0.011766447927785478,10.875227099128205,0.6028418924624372
131.0,20.74775377171712,0.4377625025253799,0.011762023993783684,10.874721883156695,0.602849741878291
132.0,20.75143862154278,0.43794552050406305,0.011757600809662335,10.874216653965465,0.6028570151319982
133.0,20.755123290036586,0.43812856009415485,0.011753178376519176,10.873711411610113,0.6028642411695785
134.0,20.758807776681543,0.4383116212301614,0.01174875669265982,10.873206156146301,0.6028723817202477
135.0,20.762492080960328,0.4384947038465336,0.011744335751222938,10.872700887629785,0.602880614271026
136.0,20.766176202355275,0.4386778078776709,0.011739915553364207,10.872195606116371,0.6028883607023624
137.0,20.7698601403484,0.4388609332579214,0.01173549609617647,10.871690311661892,0.6028953489729071
138.0,20.77354389442138,0.4390440799215842,0.01173107737455681,10.871185004322214,0.6029034336307769
139.0,20.77722746405556,0.4392272478029053,0.011726659389767085,10.870679684153243,0.602912269419088
140.0,20.780910848731974,0.43941043683607445,0.01172224214310132,10.870174351210931,0.6029200741600033
141.0,20.7845940479313,0.4395936469552411,0.011717825623211943,10.869669005550262,0.602928280968217
142.0,20.788277061133904,0.4397768780944918,0.011713409818610066,10.869163647225305,0.6029366291680974
143.0,20.791959887819814,0.43996013018786967,0.011708994755325317,10.86865827629215,0.6029449964063097
144.0,20.79564252746874,0.44014340316937034,0.011704580434799687,10.868152892806934,0.6029534683919621
145.0,20.799324979560044,0.4403266969729284,0.011700166829624279,10.867647496823775,0.6029622044579105
146.0,20.803007243572775,0.4405100115324317,0.011695753950453717,10.867142088398056,0.6029707970085969
147.0,20.806689318985654,0.44069334678172295,0.011691341790700149,10.866636667585688,0.6029795519739282
148.0,20.810371205277065,0.4408767026545886,0.011686930378625865,10.866131234442985,0.6029883877525343
149.0,20.814052901925066,0.44106007908476436,0.011682519715819122,10.865625789026307,0.6029970363242866
150.0,20.817734408407404,0.4412434760059407,0.011678109803886493,10.865120331392054,0.6030056635754852
151.0,20.821415724201472,0.4414268933517545,0.0116737006247026,10.864614861596436,0.6030142684396432
152.0,20.82509684878437,0.4416103310557902,0.0116692921820463,10.864109379695737,0.6030225218017774
153.0,20.828777781632844,0.4417937890515862,0.011664884494612827,10.8636038857465,0.6030306713934032
154.0,20.83245852222332,0.4419772672726306,0.011660477564097096,10.863098379805304,0.6030402399382533
155.0,20.836139070031912,0.44216076565235896,0.011656071386158975,10.862592861928512,0.6030492479396925
156.0,20.839819424534397,0.4423442841241612,0.011651665966466189,10.862087332172681,0.6030580497599652
157.0,20.843499585206224,0.44252782262137424,0.011647261308411634,10.861581790594496,0.6030669617045993
158.0,20.84717955152253,0.44271138107728186,0.011642857413737554,10.861076237250677,0.6030762946435482
159.0,20.85085932295812,0.442894959425133,0.011638454284187303,10.860570672197996,0.6030856600177109
160.0,20.85453889898747,0.44307855759810977,0.011634051913886912,10.860065095493283,0.6030948797847556
161.0,20.858218279084745,0.443262175529352,0.011629650303888269,10.859559507193419,0.6031031662268567
162.0,20.86189746272378,0.44344581315195614,0.011625249440188933,10.859053907355303,0.6031107575236708
163.0,20.865576449378075,0.4436294703989588,0.011620849318684921,10.858548296035877,0.6031181920771499
164.0,20.869255238520843,0.44381314720335835,0.011616449962661188,10.858042673292154,0.6031269103830422
165.0,20.87293382962494,0.44399684349809504,0.011612051352850001,10.857537039181432,0.6031364288980315
166.0,20.87661222216291,0.444180559216066,0.011607653497851181,10.857031393760973,0.6031454180999036
167.0,20.880290415606982,0.4443642942901202,0.011603256408846763,10.85652573708772,0.6031535462231876
168.0,20.883968409429063,0.4445480486530546,0.011598860063428874,10.856020069217646,0.6031611915612949
169.0,20.88764620310073,0.4447318222376159,0.011594464492316802,10.855514390207997,0.6031687421788225
170.0,20.891323796093246,0.4449156149765088,0.011590069695778986,10.855008700116082,0.6031763928046284
171.0,20.895001187877547,0.4450994268023891,0.011585675674605339,10.854502998999255,0.6031844439148297
172.0,20.89867837792426,0.4452832576478553,0.011581282430377983,10.853997286914904,0.6031922685511942
173.0,20.902355365703684,0.44546710744547213,0.011576889964856566,10.85349156392047,0.6031998148626885
174.0,20.90603215068579,0.4456509761277398,0.011572498279777417,10.85298583007344,0.6032074275559786
175.0,20.90970873234025,0.4458348636271265,0.011568107376851731,10.852480085431347,0.6032153529131518
176.0,20.913385110136403,0.44601876987604433,0.011563717257763608,10.851974330051771,0.603223273174043
177.0,20.91706128354327,0.4462026948068547,0.0115593279226542,10.851468563992372,0.6032312256174505
178.0,20.920737252029568,0.44638663835188397,0.011554939372889424,10.850962787310866,0.6032391408328309
179.0,20.92441301506367,0.4465706004433929,0.011550551610078987,10.850457000065015,0.6032472616542618
180.0,20.928088572113662,0.44675458101361026,0.011546164635799824,10.849951202312628,0.6032553283607107
181.0,20.931763922647278,0.4469385799947128,0.01154177845159455,10.849445394111564,0.6032633596667535
182.0,20.935439066131973,0.4471225973188262,0.011537393058969878,10.848939575519733,0.6032712786710436
183.0,20.939114002034856,0.4473066329180326,0.011533008459395323,10.84843374659509,0.6032790398936364
184.0,20.942788729822738,0.4474906867243689,0.011528624654301496,10.847927907395642,0.6032865895314818
185.0,20.946463248962104,0.44767475866982176,0.011524241645079102,10.847422057979443,0.603294029873256
186.0,20.950137558919124,0.44785884868632975,0.011519859433077392,10.8469161984046,0.6033015325756766
187.0,20.95381165915965,0.448042956705793,0.011515478019603198,10.846410328729268,0.603308979267425
188.0,20.957485549149233,0.44822708266005123,0.011511097405919692,10.845904449011655,0.6033163565960474
189.0,20.9611592283531,0.44841122648091586,0.01150671759324538,10.845398559310015,0.6033234532975058
190.0,20.964832696236165,0.44859538810013094,0.0115023385827531,10.844892659682653,0.6033302769648416
191.0,20.96850595226301,0.44877956744941083,0.011497960375569131,10.844386750187931,0.6033374357341376
192.0,20.97217899589794,0.4489637644604196,0.011493582972772372,10.843880830884256,0.6033442397156614
193.0,20.975851826604924,0.44914797906477016,0.011489206375393456,10.843374901830087,0.6033507004712265
