k,PSNR,SSIM,mse,Log-Gradient,Angle
0.0,20.26425528204665,0.41402876209504486,0.0,10.940695019594461,0.6005770235118203
1.0,20.267397347173485,0.41417960212286503,0.01028165811514635,10.940265444344988,0.6016619790116107
2.0,20.271075174904297,0.4143578619125419,0.012205087703386406,10.939765833791368,0.6016706752401454
3.0,20.27477595288087,0.4145373868869993,0.012313348514153472,10.939263219532947,0.60168520667296
4.0,20.27847833446144,0.41471703881681815,0.012320998960548144,10.938760350938685,0.6016962754900357
5.0,20.282180624003647,0.4148967243641493,0.01231841074272197,10.93825745148824,0.601711169728698
6.0,20.28588257167748,0.41507642918230875,0.012313870473780993,10.937754557002174,0.6017208172215146
7.0,20.28958413418477,0.41525615079095807,0.01230884281483003,10.93725167547654,0.6017306116406939
8.0,20.29328529848253,0.4154358883520945,0.012303623692184962,10.936748809880068,0.6017403343075475
9.0,20.296986058403476,0.41561564145401203,0.012298314574006187,10.936245961767215,0.6017500613791834
10.0,20.300686411359194,0.41579540988985825,0.012292959553238891,10.935743131905701,0.6017597986375443
11.0,20.304386356106818,0.4159751935318697,0.012287571293822235,10.935240320835758,0.601769635023065
12.0,20.30808589144553,0.41615499226428904,0.01228216100291546,10.934737528947982,0.6017793644726407
13.0,20.311785016475078,0.41633480598586786,0.012276739650868349,10.93423475647924,0.6017889893191272
14.0,20.31548373055651,0.4165146346227706,0.012271306559130404,10.933732003662733,0.601798519526972
15.0,20.31918203299805,0.4166944780898691,0.012265869732661265,10.93322927063867,0.6018079762067613
16.0,20.322879923256036,0.41687433631479714,0.012260431877053437,10.932726557514416,0.6018173887004644
17.0,20.326577400802016,0.41705420922671316,0.012254993989486719,10.93222386436902,0.601826748297794
18.0,20.33027446508965,0.4172340967562798,0.0122495528845426,10.931721191292166,0.6018360831165827
19.0,20.3339711155989,0.4174139988334919,0.012244112240245606,10.931218538362543,0.6018453812224324
20.0,20.337667351812012,0.4175939153885834,0.012238671073453158,10.93071590566926,0.6018545617074893
21.0,20.341363173212944,0.4177738463519725,0.012233228516944639,10.93021329329509,0.601863685233667
22.0,20.345058579286857,0.4179537916541935,0.012227783962281838,10.929710701333684,0.6018728472132336
23.0,20.348753569519815,0.41813375122587315,0.012222340397723927,10.929208129858951,0.6018822512617502
24.0,20.352448143398533,0.4183137249976838,0.012216897241078196,10.928705578946339,0.6018916878039625
25.0,20.35614230041023,0.41849371290034815,0.012211455167589603,10.928203048667166,0.6019010638463866
26.0,20.359836040042453,0.41867371486460137,0.01220601422959193,10.927700539090255,0.6019103837347836
27.0,20.363529361783016,0.4188537308211849,0.012200574792915234,10.927198050283673,0.6019196936150106
28.0,20.367222265119892,0.4190337607008509,0.012195136088524431,10.926695582317757,0.6019289236763427
29.0,20.37091474954117,0.41921380443433853,0.012189698948710352,10.926193135259773,0.601938093859371
30.0,20.374606814535007,0.41939386195236966,0.01218426337772858,10.925690709176807,0.6019473482743506
31.0,20.3782984595896,0.4195739331856654,0.012178829378353864,10.925188304135798,0.6019566966078961
32.0,20.381989684193158,0.419754018064916,0.012173396952177019,10.92468592020358,0.6019660368179557
33.0,20.385680487833888,0.4199341165207959,0.012167966099835982,10.924183557446895,0.6019752867369818
34.0,20.389370869999937,0.420114228483963,0.012162536693540865,10.923681215928383,0.6019846177638893
35.0,20.39306083017945,0.4202943538850373,0.012157108719106125,10.92317889571272,0.6019939302717967
36.0,20.39675036786049,0.4204744926546217,0.012151681710864299,10.922676596875785,0.6020033571553535
37.0,20.40043948252762,0.42065464472305586,0.012146255422156967,10.922174319487056,0.6020127333456687
38.0,20.404128173664276,0.42083481002057704,0.01214083018567595,10.921672063610568,0.6020221028862806
39.0,20.407816440758594,0.4210149884777281,0.012135406220165028,10.92116982931217,0.6020314378508379
40.0,20.411504283298612,0.4211951800250215,0.012129983793375943,10.92066761665818,0.6020407612801768
41.0,20.41519170077231,0.4213753845929437,0.012124562905049482,10.920165425714913,0.6020501450478322
42.0,20.418878692667583,0.42155560211195775,0.012119143554759246,10.919663256548688,0.6020596447163918
43.0,20.422565258472247,0.42173583251248853,0.01211372574193779,10.919161109225824,0.6020691690657374
44.0,20.42625139767403,0.42191607572494005,0.012108309465898802,10.918658983812652,0.602078778345157
45.0,20.429937109760615,0.4220963316796837,0.012102894725856033,10.918156880375507,0.6020883723395541
46.0,20.43362239421956,0.42227660030706704,0.01209748152093943,10.917654798980744,0.6020979067685799
47.0,20.437307250538357,0.4224568815374057,0.01209206985020873,10.917152739694723,0.602107403888887
48.0,20.440991678204412,0.4226371753009892,0.012086659712665059,10.916650702583821,0.6021168894640037
49.0,20.444675676705057,0.4228174815280729,0.01208125109464747,10.916148687714395,0.6021263600415165
50.0,20.448359245527516,0.4229978001488921,0.012075843873913325,10.915646695152422,0.6021357780990648
51.0,20.45204238415895,0.42317813109364416,0.012070438030287583,10.915144724965586,0.6021451835931436
52.0,20.45572509208643,0.423358474292509,0.012065033620011727,10.914642777221069,0.6021546136705531
53.0,20.459407368796928,0.42353882967562567,0.012059630733791933,10.914140851985277,0.6021639195087234
54.0,20.46308921377736,0.42371919717311496,0.012054229277990493,10.913638949323678,0.6021731048055724
55.0,20.466770626514517,0.4238995767150647,0.012048829049515408,10.913137069304156,0.6021822220835754
56.0,20.470451606495146,0.4240799682315351,0.012043430311282901,10.912635211993514,0.6021912389708858
57.0,20.474132153205886,0.42426037165255764,0.01203803309603428,10.912133377458181,0.6022002700957669
58.0,20.477812266133295,0.4244407869081406,0.01203263739288553,10.911631565764578,0.6022094092275511
59.0,20.481491944763857,0.4246212139282595,0.012027243032779262,10.911129776978678,0.6022185116470092
60.0,20.485171188583955,0.42480165264286135,0.012021850195391849,10.910628011166967,0.6022275058872252
61.0,20.488849997079896,0.42498210298186345,0.012016458880338988,10.910126268395953,0.6022363176957184
62.0,20.492528369737908,0.4251625648751684,0.012011068983130532,10.909624548732584,0.6022451567737582
63.0,20.496206306044137,0.42534303825263686,0.01200568052285631,10.909122852243716,0.6022541707123086
64.0,20.499883805484636,0.4255235230441065,0.012000293587426181,10.908621178995876,0.6022630722145403
65.0,20.503560867545385,0.4257040191793935,0.01199490817671047,10.908119529055613,0.6022718564511039
66.0,20.50723749171228,0.42588452658827874,0.01198952429058125,10.9076179024895,0.6022804791512703
67.0,20.51091367747114,0.42606504520051786,0.011984141928913302,10.907116299364128,0.6022889823421331
68.0,20.514589424307697,0.42624557494584225,0.011978761091585074,10.906614719746118,0.6022980228932829
69.0,20.518264731707603,0.4264261157539569,0.011973381705176426,10.906113163702189,0.6023071204275642
70.0,20.521939599156447,0.4266066675545379,0.01196800378910991,10.905611631299061,0.6023161690268649
71.0,20.525614026139714,0.42678723027723536,0.01196262740166168,10.905110122603405,0.6023250656874541
72.0,20.52928801214283,0.4269678038516735,0.01195725254281481,10.90460863768191,0.6023338715125008
73.0,20.532961556651138,0.42714838820744755,0.011951879212554467,10.904107176601297,0.6023424742229678
74.0,20.5366346591499,0.4273289832741313,0.011946507410868286,10.9036057394283,0.6023509093542345
75.0,20.540307319124306,0.4275095889812714,0.01194113713774677,10.903104326229686,0.6023592327847718
76.0,20.543979536059464,0.42769020525838336,0.01193576839318359,10.902602937072238,0.6023674569730643
77.0,20.547651309440415,0.42787083203496207,0.011930401177175877,10.902101572022767,0.602375627971998
78.0,20.55132263875212,0.4280514692404735,0.011925035489724466,10.901600231148105,0.6023837382294696
79.0,20.554993523479457,0.4282321168043635,0.011919671330834092,10.901098914515106,0.6023918605902577
80.0,20.55866396310725,0.42841277465604727,0.011914308700513528,10.90059762219065,0.6023999772709999
81.0,20.56233395712023,0.4285934427249137,0.011908947598775753,10.90009635424164,0.6024080550954419
82.0,20.56600350500306,0.42877412094033346,0.011903588025638014,10.899595110735,0.6024161103519176
83.0,20.569672606240342,0.4289548092316426,0.01189822998112187,10.899093891737678,0.6024245441695099
84.0,20.57334126031659,0.4291355075281618,0.011892873465253346,10.898592697316648,0.6024331492379745
85.0,20.577009466716255,0.42931621575918183,0.011887518478062775,10.898091527538902,0.6024417542509358
86.0,20.580677224923715,0.42949693385396426,0.011882165019585065,10.89759038247146,0.6024503083986222
87.0,20.584344534423273,0.42967766174175565,0.011876813089859396,10.897089262181362,0.6024593327165937
88.0,20.588011394699187,0.4298583993517718,0.01187146268892944,10.896588166735672,0.6024686073652342
89.0,20.59167780523561,0.43003914661321146,0.011866113816843228,10.896087096201477,0.6024776251461169
90.0,20.595343765516642,0.4302199034552346,0.011860766473653039,10.895586050645885,0.6024862146321118
91.0,20.599009275026326,0.430400669806992,0.01185542065941546,10.89508503013603,0.6024946961644638
92.0,20.60267433324863,0.43058144559760364,0.011850076374191271,10.894584034739067,0.6025031916543389
93.0,20.606338939667424,0.430762230756167,0.0118447336180453,10.894083064522174,0.6025116174337389
94.0,20.610003093766576,0.43094302521175515,0.011839392391046448,10.893582119552553,0.6025200879948382
95.0,20.613666795029832,0.431123828893422,0.01183405269326757,10.893081199897424,0.6025282342151007
96.0,20.6173300429409,0.43130464173018934,0.011828714524785188,10.892580305624035,0.6025361018922536
97.0,20.62099283698341,0.4314854636510607,0.01182337788436529,10.892079436799653,0.6025442145652427
98.0,20.62465517664094,0.43166629458502065,0.011818042768964239,10.891578593491571,0.602552740323845
99.0,20.62831706139699,0.4318471344610231,0.011812709175265937,10.891077775767092,0.602561195359005
100.0,20.63197849073502,0.43202798320800256,0.011807377099052278,10.890576983693531,0.6025694469687064
101.0,20.6356394641384,0.4322088407548734,0.011802046540558058,10.890076217338223,0.6025775189614321
102.0,20.63929998109046,0.43238970703052143,0.011796717500034604,10.889575476768524,0.6025854043849236
103.0,20.642960041074453,0.43257058196381415,0.011791389977749665,10.889074762051813,0.6025935681153373
104.0,20.646619643573576,0.4327514654835989,0.011786063973987355,10.888574073255489,0.6026018905720687
105.0,20.650278788070977,0.4329323575186925,0.011780739486301085,10.888073410447003,0.6026108659923954
106.0,20.653937474049734,0.43311325799789735,0.011775416513262483,10.887572773693849,0.6026205838809079
107.0,20.657595700992857,0.43329416684999345,0.011770095055225941,10.887072163063538,0.6026303859053039
108.0,20.66125346838333,0.4334750840037344,0.011764775112565318,10.886571578623604,0.6026399532712305
109.0,20.664910775704026,0.43365600938785515,0.01175945668567344,10.886071020441602,0.6026491717209066
110.0,20.668567622437813,0.4338369429310654,0.011754139774962206,10.885570488585104,0.6026581250706364
111.0,20.672224008067484,0.43401788456206164,0.011748824380862024,10.885069983121705,0.6026668140970363
112.0,20.675879932075762,0.4341988342095103,0.011743510503821653,10.884569504119021,0.6026760523409574
113.0,20.679535393945336,0.4343797918020631,0.011738198144307823,10.884069051644683,0.6026858919518533
114.0,20.683190393158814,0.4345607572683474,0.011732887298472083,10.883568625766355,0.6026957010946684
115.0,20.686844929198784,0.4347417305369669,0.01172757796110339,10.883068226551721,0.6027052074822911
116.0,20.690499001547753,0.43492271153651124,0.011722270132742766,10.882567854068489,0.6027143850626514
117.0,20.69415260968819,0.43510370019554506,0.01171696381395595,10.88206750838438,0.6027234037114891
118.0,20.6978057531025,0.4352846964426121,0.011711659004861642,10.881567189567134,0.6027324358436784
119.0,20.701458431273032,0.4354657002062367,0.011706355705717984,10.881066897684505,0.6027413064345415
120.0,20.70511064368211,0.4356467114149269,0.011701053917264252,10.880566632804266,0.6027500460034894
121.0,20.70876238981198,0.4358277299971615,0.011695753640260449,10.880066394994207,0.6027587512425195
122.0,20.712413669144848,0.4360087558814101,0.011690454873538727,10.879566184322126,0.6027674284587888
123.0,20.716064481162874,0.4361897889961126,0.01168515761717172,10.879066000855836,0.6027761858774284
124.0,20.719714825348152,0.4363708292696981,0.011679861871996395,10.878565844663168,0.6027850454653013
125.0,20.723364701182753,0.4365518766305674,0.011674567638869319,10.87806571581197,0.6027937279443129
126.0,20.727014108148687,0.43673293100711047,0.011669274918665769,10.877565614370106,0.6028022853421839
127.0,20.73066304572791,0.43691399232768946,0.011663983712278784,10.87706554040546,0.6028107874500538
128.0,20.73431151340234,0.43709506052065583,0.011658694020618225,10.876565493985938,0.6028192782624824
129.0,20.737959510653845,0.4372761355143319,0.011653405844609794,10.876065475179455,0.6028276898422978
130.0,20.741607036964247,0.4374572172370308,0.011648119184432166,10.875565484053956,0.6028361535893144
131.0,20.745254091815333,0.4376383056170458,0.011642834039222007,10.875065520677403,0.6028443363971604
132.0,20.748900674688837,0.4378194005826465,0.01163755040996857,10.874565585117779,0.6028519002547584
133.0,20.752546785066436,0.438000502062081,0.011632268297675193,10.874065677443085,0.6028590013337028
134.0,20.75619242242979,0.4381816099835926,0.01162698770335851,10.873565797721334,0.6028664896912228
135.0,20.7598375862605,0.4383627242753929,0.011621708621436721,10.873065946020604,0.6028745504055457
136.0,20.763482276040133,0.43854384486567893,0.01161643104888308,10.87256612240902,0.6028825781138171
137.0,20.767126491250202,0.4387249716826398,0.011611154986773982,10.87206632695472,0.6028901035812848
138.0,20.770770231372193,0.43890610465442825,0.011605880428652602,10.871566559725833,0.6028967711701737
139.0,20.774413495887547,0.43908724370919616,0.01160060737292284,10.871066820790508,0.6029054120957203
140.0,20.77805628427766,0.43926838877506946,0.011595335820771121,10.870567110216898,0.6029139172999088
141.0,20.781698596023897,0.43944953978015616,0.011590065773414772,10.87006742807318,0.6029214861845471
142.0,20.785340430607583,0.43963069665255233,0.011584797194929613,10.869567774424679,0.6029297874600742
143.0,20.788981787509996,0.43981185932033146,0.01157953012165224,10.869068149339515,0.6029380347282205
144.0,20.792622666212385,0.4399930277115531,0.011574264556163923,10.868568552885922,0.6029462939365797
145.0,20.796263066195962,0.44017420175425676,0.011569000486504142,10.868068985131206,0.6029547463446451
146.0,20.7999029869419,0.4403553813764744,0.011563737900762407,10.867569446141806,0.6029633618729539
147.0,20.803542427931326,0.4405365665062082,0.011558476795263709,10.867069935985597,0.6029718337221978
148.0,20.80718138864535,0.4407177570714511,0.011553217197037094,10.866570454730814,0.6029805205618121
149.0,20.81081986856504,0.44089895300018084,0.011547959112576391,10.866071002445764,0.6029892375464717
150.0,20.814457867171434,0.4410801542203557,0.01154270254338238,10.86557157919878,0.6029977660856282
151.0,20.818095383945522,0.44126136065991944,0.01153744748634254,10.865072185058152,0.6030062887522941
152.0,20.821732418368285,0.44144257224679545,0.01153219391466547,10.864572820091846,0.6030147808913325
153.0,20.825368969920657,0.44162378890890325,0.011526941862293092,10.864073484368244,0.6030229386512799
154.0,20.829005038083537,0.44180501057413485,0.011521691330816208,10.86357417795574,0.6030309866268131
155.0,20.832640622337806,0.4419862371703707,0.011516442320463121,10.86307490092269,0.6030404047094565
156.0,20.836275722164302,0.4421674686254769,0.011511194827721411,10.862575653337215,0.6030493012483794
157.0,20.839910337043854,0.4423487048672992,0.011505948860281666,10.862076435267722,0.6030579960808419
158.0,20.84354446645723,0.4425299458236811,0.011500704419784052,10.861577246782632,0.6030667959532527
159.0,20.847178109885206,0.44271119142243603,0.011495461507870654,10.86107808795038,0.6030760087629513
160.0,20.850811266808506,0.4428924415913688,0.011490220126183118,10.860578958839419,0.6030852517991497
161.0,20.854443936707835,0.4430736962582718,0.011484980268458305,10.860079859518233,0.6030943763249229
162.0,20.858076119063863,0.44325495535092035,0.011479741936033632,10.859580790055327,0.603102621501928
163.0,20.861707813357256,0.4434362187970787,0.011474505098128931,10.859081750519177,0.603110151953194
164.0,20.865339019068628,0.44361748652448824,0.011469269783657537,10.85858274097831,0.6031174764572119
165.0,20.868969735678586,0.4437987584608878,0.011464035998350008,10.858083761501284,0.6031258371570525
166.0,20.872599962667717,0.4439800345339915,0.01145880371050584,10.857584812157054,0.6031352689026069
167.0,20.87622969951658,0.44416131467150866,0.011453572956139467,10.857085893014196,0.6031442170852029
168.0,20.879858945705692,0.444342598801127,0.011448343719396303,10.85658700414057,0.6031523556585955
169.0,20.883487700715584,0.44452388685052663,0.011443116003205644,10.856088145604124,0.6031599270265487
170.0,20.887115964026734,0.4447051787473715,0.011437889825546221,10.855589317473493,0.6031673882035402
171.0,20.89074373511962,0.4448864744193132,0.011432665186439836,10.85509051981735,0.6031747924377278
172.0,20.894371013474682,0.44506777379399143,0.011427442086521645,10.854591752704373,0.6031827751938637
173.0,20.89799779857236,0.44524907679902376,0.011422220527455555,10.854093016203255,0.6031905150855892
174.0,20.901624089893044,0.4454303833620307,0.0114170005108833,10.853594310382707,0.603198015363467
175.0,20.905249886917147,0.44561169341060464,0.011411782038422648,10.853095635311458,0.603205365737288
176.0,20.90887518912503,0.4457930068723388,0.011406565111665434,10.852596991058254,0.6032132030089198
177.0,20.91249999599706,0.44597432367480283,0.011401349732175683,10.852098377691858,0.6032209720423736
178.0,20.916124307013565,0.44615564374555916,0.011396135900227217,10.851599795281077,0.6032288342922821
179.0,20.919748121654877,0.44633696701215825,0.011390923616835564,10.851101243894744,0.6032366154471673
180.0,20.92337143940131,0.446518293402137,0.011385712883488617,10.85060272360172,0.6032445347415264
181.0,20.926994259733153,0.44669962284302067,0.011380503701641145,10.850104234470871,0.6032525627817084
182.0,20.93061658213069,0.4468809552623216,0.011375296072713278,10.849605776571089,0.6032604658869984
183.0,20.934238406074183,0.4470622905875448,0.01137008999808908,10.849107349971284,0.6032683280555003
184.0,20.93785973104389,0.4472436287461825,0.011364885479115088,10.848608954740385,0.6032760236312943
185.0,20.94148055652006,0.44742496966570783,0.011359682517099073,10.848110590947336,0.6032835522510422
186.0,20.94510088198291,0.4476063132735962,0.011354481113308635,10.847612258661103,0.6032909160367071
187.0,20.94872070691267,0.4477876594972962,0.011349281268970175,10.847113957950674,0.603298235923578
188.0,20.952340030789554,0.44796900826426106,0.011344082985267605,10.84661568888505,0.6033056342633951
189.0,20.95595885309375,0.44815035950191834,0.011338886263341473,10.846117451533258,0.6033129337753436
190.0,20.95957717330546,0.44833171313770165,0.011333691104287797,10.845619245964341,0.6033200832090756
191.0,20.963194990904867,0.4485130690990147,0.011328497509157326,10.845121072247363,0.603326902574674
192.0,20.96681230537213,0.44869442731327197,0.011323305478954413,10.844622930451408,0.6033337591536019
193.0,20.970429116187436,0.448875787707861,0.011318115014636542,10.844124820645577,0.6033407196868112
