k,PSNR,SSIM,mse,Log-Gradient,Angle
0.0,20.62752615396559,0.4412252659800897,0.0,10.900231517168379,0.5944121105719559
1.0,20.63067937156135,0.4413832544625563,0.009901133415010676,10.899802936065987,0.599709886290173
2.0,20.634481409667064,0.441578622002956,0.012135690515813004,10.899290514764134,0.5997188050394487
3.0,20.638321682807785,0.4417766019049618,0.012309054265761309,10.898773267151965,0.5997291326054407
4.0,20.642165301348925,0.4419748761435658,0.012326477692629699,10.898255575952904,0.5997464468554453
5.0,20.646008930395205,0.4421732084643884,0.012325097134418454,10.89773785980494,0.5997593515402055
6.0,20.649852039967193,0.44237155934120204,0.012320190896400776,10.89722018608392,0.5997661787399183
7.0,20.65369450391913,0.4425699190513061,0.012314327538736543,10.896702571073318,0.5997783049463156
8.0,20.657536281737965,0.44276828442716415,0.012308120180006401,10.896185019854794,0.5997846233275183
9.0,20.661377359864485,0.44296665428721,0.012301779058285365,10.895667534470006,0.599791295963351
10.0,20.6652177309956,0.44316502795252655,0.01229536601076738,10.895150116008816,0.5997991013120257
11.0,20.669057390125936,0.44336340493449894,0.01228890081231792,10.894632765284518,0.5998066337207871
12.0,20.672896335124314,0.443561784995081,0.012282410781159233,10.894115482825752,0.5998146363459255
13.0,20.67673456452078,0.44376016796166895,0.012275908387828587,10.893598268904547,0.5998222755922938
14.0,20.680572077237926,0.44395855368638193,0.012269397603384575,10.893081123734916,0.5998296268203164
15.0,20.684408872204052,0.44415694202625394,0.012262881878407489,10.89256404750434,0.5998398213674011
16.0,20.68824494865671,0.4443553328647756,0.012256365164672623,10.892047040370594,0.599850541256045
17.0,20.69208030577275,0.44455372608363136,0.012249844226314041,10.89153010251473,0.5998606809525974
18.0,20.6959149428657,0.44475212157283694,0.012243323506697183,10.89101323405536,0.5998705509668444
19.0,20.69974885933587,0.4449505192303751,0.012236803671189291,10.89049643511648,0.5998803207451295
20.0,20.70358205459079,0.4451489189529441,0.012230285475651073,10.889979705809921,0.5998900689118346
21.0,20.707414528007007,0.445347320631897,0.012223768762964785,10.88946304624187,0.5998997627828869
22.0,20.711246278985705,0.44554572416291416,0.012217253933871335,10.888946456522078,0.5999094245784727
23.0,20.715077306959895,0.44574412944589614,0.01221074133093613,10.888429936755136,0.5999192750909949
24.0,20.718907611360805,0.44594253638040077,0.012204230949969131,10.887913487043706,0.599929325634303
25.0,20.722737191589786,0.4461409448615869,0.012197722234355023,10.88739710748335,0.5999393704992166
26.0,20.726566047075533,0.44633935478881964,0.012191215534880034,10.886880798177499,0.5999493671183683
27.0,20.73039417724452,0.4465377660612047,0.012184710740677987,10.88636455922978,0.5999592665582173
28.0,20.734221581534204,0.44673617857889464,0.01217820829029309,10.885848390740021,0.5999691417371561
29.0,20.738048259378303,0.44693459224150484,0.012171708092416467,10.885332292807249,0.5999789846055664
30.0,20.741874210195625,0.44713300694663866,0.012165209755475793,10.884816265528775,0.5999887503206812
31.0,20.745699433425273,0.4473314225945053,0.012158713785432094,10.884300309003265,0.5999984305644043
32.0,20.74952392850666,0.44752983908531047,0.01215222019062041,10.883784423329134,0.6000082473864442
33.0,20.75334769487178,0.44772825631840635,0.012145728898472237,10.883268608604427,0.6000180412681324
34.0,20.757170731934153,0.4479266741910682,0.012139239716664228,10.882752864926598,0.6000278934363751
35.0,20.76099303912891,0.4481250926031028,0.01213275270424597,10.882237192391054,0.6000377093639291
36.0,20.76481461589539,0.4483235114546071,0.01212626800802456,10.881721591094635,0.600047683433001
37.0,20.768635461674965,0.44852193064580775,0.012119785699757031,10.881206061134849,0.6000575687567518
38.0,20.772455575909294,0.4487203500769243,0.01211330578243571,10.88069060260911,0.6000674921589988
39.0,20.776274958040275,0.44891876964816824,0.012106828258564498,10.880175215614758,0.6000774413949963
40.0,20.780093607510075,0.4491171892597407,0.01210035313023881,10.879659900249058,0.6000873655171348
41.0,20.783911523761095,0.449315608811841,0.012093880399210694,10.879144656609222,0.600097301918242
42.0,20.78772870623597,0.4495140282046525,0.012087410066942283,10.878629484792409,0.6001072095321195
43.0,20.791545154377605,0.4497124473383556,0.012080942134649901,10.878114384895735,0.6001171141598826
44.0,20.795360867629114,0.4499108661131155,0.012074476603340493,10.877599357016276,0.6001269687133989
45.0,20.799175845433872,0.4501092844290966,0.012068013473842221,10.877084401251071,0.6001368725040463
46.0,20.80299008723548,0.45030770218644794,0.01206155274682977,10.876569517697135,0.6001467722013523
47.0,20.806803592477774,0.4505061192853166,0.012055094422845884,10.876054706451448,0.6001565842407146
48.0,20.810616360604843,0.4507045356258356,0.012048638502319487,10.875539967610969,0.6001664945802282
49.0,20.814428391061,0.45090295110813555,0.012042184985580852,10.875025301272636,0.6001763636286592
50.0,20.81823968329079,0.4511013656323308,0.012035733872874764,10.874510707533368,0.6001863932877473
51.0,20.822050236739006,0.4512997790985344,0.012029285164371649,10.873996186490059,0.6001964825616143
52.0,20.825860050850665,0.4514981914068527,0.012022838860177028,10.873481738239597,0.6002064944546556
53.0,20.829669125071035,0.45169660245738125,0.012016394960339849,10.87296736287885,0.6002165752385548
54.0,20.8334774588456,0.45189501215020766,0.012009953464859469,10.872453060504668,0.600226658782882
55.0,20.83728505162011,0.45209342038541456,0.012003514373691722,10.871938831213896,0.600236705141619
56.0,20.841091902840525,0.4522918270630784,0.011997077686754393,10.871424675103363,0.6002467528228014
57.0,20.844898011953056,0.45249023208326694,0.011990643403931654,10.870910592269885,0.6002566395240512
58.0,20.848703378404156,0.4526886353460435,0.01198421152507823,10.870396582810272,0.6002663872161896
59.0,20.852508001640505,0.4528870367514612,0.011977782050022758,10.869882646821322,0.6002758704450676
60.0,20.856311881109036,0.45308543619957375,0.01197135497857106,10.869368784399823,0.6002852100390332
61.0,20.86011501625527,0.4532838335902502,0.011964930225988568,10.868854995642483,0.6002944625467332
62.0,20.8639174065252,0.45348222882337647,0.011958507800512072,10.86834128064599,0.6003036669181586
63.0,20.867719051366613,0.453680621799001,0.011952087780456696,10.86782763950709,0.600312898051982
64.0,20.87151995022754,0.453879012417161,0.011945670165652752,10.86731407232252,0.6003221997243106
65.0,20.87532010255625,0.4540774005778951,0.01193925495591085,10.86680057918901,0.6003316566667125
66.0,20.879119507801246,0.45427578618123093,0.011932842151023847,10.866287160203283,0.600342006587239
67.0,20.882918165411283,0.4544741691271976,0.011926431750768931,10.865773815462058,0.6003524249944316
68.0,20.88671607483537,0.4546725493158163,0.011920023754908892,10.865260545062041,0.6003628273471866
69.0,20.89051323552274,0.4548709266471059,0.011913618163193687,10.864747349099932,0.6003735053176459
70.0,20.894309646922874,0.4550693010210803,0.011907214975361504,10.864234227672434,0.6003843716710668
71.0,20.89810530848552,0.4552676723377533,0.011900814191139782,10.863721180876228,0.6003951952769974
72.0,20.90190021966063,0.45546604049713096,0.011894415810246126,10.863208208808,0.6004058944090087
73.0,20.90569437989845,0.4556644053992213,0.011888019832389057,10.862695311564428,0.6004156705060125
74.0,20.909487788649436,0.4558627669440256,0.0118816262572687,10.862182489242178,0.6004243718113913
75.0,20.913280445364318,0.4560611250315471,0.01187523508457743,10.861669741937915,0.6004354707044081
76.0,20.917072349494063,0.4562594795617809,0.011868846314000403,10.861157069748295,0.6004467109555988
77.0,20.92086350048988,0.45645783043472576,0.011862459945215977,10.860644472769966,0.6004578988832655
78.0,20.92465389780326,0.4566561775503781,0.011856075977896228,10.860131951099575,0.6004691950362008
79.0,20.928443540885905,0.4568545208087315,0.011849694411707301,10.859619504833757,0.6004803072830996
80.0,20.932232429189796,0.4570528601097759,0.011843315246309718,10.859107134069143,0.6004911514819881
81.0,20.936020562167165,0.4572511953535066,0.011836938481358857,10.858594838902357,0.6005016360585774
82.0,20.939807939270484,0.45744952643991543,0.011830564116505014,10.858082619430016,0.6005118815661142
83.0,20.94359455995249,0.4576478532689919,0.011824192151393848,10.857570475748728,0.6005223636616223
84.0,20.94738042366619,0.45784617574072944,0.011817822585666524,10.8570584079551,0.6005331155461225
85.0,20.95116552986482,0.45804449375511885,0.011811455418959997,10.856546416145726,0.6005438891381546
86.0,20.954949878001877,0.45824280721215144,0.011805090650907122,10.856034500417193,0.6005545494267134
87.0,20.958733467531147,0.4584411160118214,0.01179872828113701,10.855522660866088,0.6005650695452339
88.0,20.96251629790664,0.4586394200541249,0.011792368309274973,10.855010897588985,0.6005755339611296
89.0,20.96629836858263,0.45883771923905337,0.011786010734942906,10.854499210682448,0.600585777702888
90.0,20.970079679013686,0.4590360134666074,0.011779655557759323,10.853987600243043,0.600596177298241
91.0,20.973860228654594,0.4592343026367843,0.011773302777339444,10.85347606636732,0.6006065333920764
92.0,20.977640016960425,0.459432586649587,0.011766952393295475,10.852964609151822,0.6006169509518687
93.0,20.981419043386524,0.459630865405018,0.01176060440523665,10.852453228693092,0.6006273002421857
94.0,20.98519730738847,0.459829138803084,0.011754258812769345,10.851941925087656,0.6006374827871841
95.0,20.988974808422135,0.4600274067437929,0.011747915615497172,10.851430698432038,0.6006476100601983
96.0,20.99275154594364,0.46022566912716023,0.01174157481302118,10.85091954882275,0.6006576026410558
97.0,20.996527519409387,0.4604239258531986,0.01173523640493981,10.8504084763563,0.6006672725768806
98.0,21.000302728276033,0.46062217682193074,0.011728900390849152,10.849897481129185,0.6006763329205838
99.0,21.00407717200051,0.4608204219333801,0.011722566770342915,10.849386563237893,0.6006862832924467
100.0,21.007850850040022,0.4610186610875755,0.011716235543012567,10.848875722778907,0.6006960301655786
101.0,21.01162376185203,0.4612168941845474,0.011709906708447425,10.848364959848697,0.6007054064941305
102.0,21.015395906894287,0.4614151211243365,0.01170358026623469,10.847854274543728,0.6007146940418403
103.0,21.019167284624807,0.46161334180698343,0.01169725621595964,10.847343666960453,0.600723822418021
104.0,21.022937894501872,0.4618115561325406,0.011690934557205589,10.846833137195322,0.6007330994458768
105.0,21.02670773598405,0.46200976400105676,0.011684615289554006,10.846322685344767,0.600742065694705
106.0,21.03047680853017,0.4622079653125955,0.011678298412584592,10.845812311505219,0.6007509937522565
107.0,21.034245111599358,0.46240615996722106,0.011671983925875385,10.845302015773093,0.6007586112117282
108.0,21.03801264465099,0.4626043478650083,0.011665671829002761,10.844791798244799,0.6007701527064235
109.0,21.041779407144745,0.4628025289060352,0.011659362121541613,10.844281659016737,0.6007793783261586
110.0,21.04554539854056,0.4630007029903906,0.01165305480306528,10.843771598185295,0.6007891801960592
111.0,21.049310618298666,0.46319887001816734,0.01164674987314576,10.843261615846854,0.6007988793100961
112.0,21.05307506587957,0.4633970298894679,0.01164044733135365,10.842751712097783,0.600808333292247
113.0,21.05683874074405,0.4635951825044005,0.011634147177258344,10.84224188703444,0.6008176536801629
114.0,21.06060164235318,0.4637933277630837,0.01162784941042799,10.841732140753175,0.6008268238315627
115.0,21.06436377016832,0.46399146556564386,0.011621554030429599,10.841222473350328,0.6008361350644925
116.0,21.068125123651097,0.46418959581221664,0.011615261036829172,10.840712884922226,0.600845539968322
117.0,21.071885702263437,0.46438771840294507,0.01160897042919168,10.840203375565185,0.6008549274531766
118.0,21.07564550546755,0.46458583323798225,0.011602682207081182,10.839693945375515,0.6008647592724992
119.0,21.07940453272592,0.46478394021749453,0.011596396370060921,10.839184594449508,0.6008746098708048
120.0,21.083162783501336,0.4649820392416501,0.01159011291769332,10.838675322883452,0.60088452166361
121.0,21.086920257256864,0.4651801302106328,0.011583831849540102,10.838166130773619,0.6008944275348554
122.0,21.090676953455866,0.4653782130246377,0.011577553165162437,10.83765701821627,0.6009048014821297
123.0,21.094432871561995,0.4655762875838689,0.011571276864120893,10.837147985307654,0.6009148519699674
124.0,21.098188011039184,0.4657743537885397,0.011565002945975593,10.836639032144014,0.6009253077930352
125.0,21.101942371351676,0.4659724115388739,0.011558731410286287,10.836130158821573,0.6009365137673078
126.0,21.105695951963988,0.466170460735114,0.011552462256612382,10.835621365436548,0.600948153222732
127.0,21.10944875234094,0.4663685012775068,0.011546195484513144,10.83511265208514,0.6009599288238262
128.0,21.113200771947653,0.46656653306631357,0.011539931093547642,10.834604018863539,0.6009711510082766
129.0,21.116952010249538,0.46676455600180927,0.011533669083275,10.834095465867925,0.6009821173278388
130.0,21.1207024667123,0.4669625699842772,0.01152740945325433,10.83358699319446,0.6009928167006371
131.0,21.124452140801942,0.4671605749140199,0.011521152203044938,10.8330786009393,0.6010031233958885
132.0,21.128201031984762,0.46735857069134695,0.011514897332206368,10.832570289198582,0.6010131644849859
133.0,21.13194913972738,0.467556557216587,0.011508644840298567,10.832062058068432,0.6010231332290942
134.0,21.13569646349668,0.46775453439007636,0.011502394726881908,10.831553907644963,0.6010328891294853
135.0,21.139443002759876,0.4679525021121706,0.011496146991517362,10.831045838024275,0.6010425877993201
136.0,21.143188756984475,0.46815046028323565,0.011489901633766585,10.830537849302454,0.6010522476716004
137.0,21.146933725638284,0.4683484088036541,0.011483658653192006,10.830029941575573,0.6010621942330192
138.0,21.150677908189806,0.46854634757397634,0.011477417992833437,10.829522114936704,0.6010720335656802
139.0,21.154421304107537,0.4687442764946188,0.011471179705730907,10.829014369481769,0.6010815685866266
140.0,21.158163912860207,0.46894219546601407,0.011464943794699645,10.82850670530684,0.6010910989642062
141.0,21.16190573391689,0.4691401043886072,0.011458710259375981,10.82799912250798,0.6011006078275175
142.0,21.165646766746946,0.46933800316285595,0.011452479099396186,10.827491621181238,0.6011098544629553
143.0,21.169387010820056,0.4695358916892356,0.011446250314396878,10.826984201422643,0.6011190989072505
144.0,21.173126465606202,0.4697337698682418,0.011440023904015113,10.82647686332822,0.6011282789221962
145.0,21.176865130575674,0.4699316376003821,0.01143379986788858,10.825969606993969,0.6011375736881864
146.0,21.180603005199092,0.47012949478618427,0.011427578205655965,10.825462432515883,0.6011467836970478
147.0,21.18434008894736,0.47032734132619053,0.011421358916956819,10.824955339989938,0.6011562860494444
148.0,21.188076381291694,0.47052517712096115,0.011415142001431776,10.824448329512093,0.6011656891792245
149.0,21.191811881703654,0.47072300207107515,0.011408927458722724,10.823941401178294,0.6011750391611868
150.0,21.195546589655084,0.47092081607713016,0.011402715288472741,10.823434555084473,0.6011843618535967
151.0,21.19928050461815,0.47111861903973934,0.011396505490326312,10.822927791326546,0.6011938763449949
152.0,21.203013626065342,0.47131641085953696,0.011390298063929367,10.822421110000407,0.601203687386814
153.0,21.206745953469447,0.4715141914371726,0.011384093008929296,10.821914511201944,0.6012133516572041
154.0,21.210477486303603,0.47171196067332194,0.011377890324975111,10.821407995027021,0.6012228984411444
155.0,21.214208224041226,0.4719097184686704,0.0113716900117175,10.820901561571493,0.6012322477522739
156.0,21.217938166156074,0.47210746472393134,0.011365492068808856,10.82039521093119,0.6012414396940075
157.0,21.221667312122218,0.47230519933983334,0.011359296495903436,10.819888943201931,0.6012507180304023
158.0,21.225395661414055,0.4725029222171255,0.011353103292657296,10.819382758479518,0.6012603673473237
159.0,21.229123213506295,0.4727006332565788,0.011346912458728514,10.818876656859734,0.6012701003299877
160.0,21.23284996787398,0.47289833235898476,0.011340723993777103,10.818370638438344,0.601280074502281
161.0,21.236575923992454,0.47309601942515345,0.01133453789746521,10.817864703311098,0.6012897121804764
162.0,21.24030108133741,0.4732936943559191,0.011328354169457046,10.817358851573726,0.601299291806873
163.0,21.244025439384853,0.4734913570521366,0.011322172809419133,10.816853083321941,0.6013088815097357
164.0,21.247748997611108,0.47368900741467884,0.011315993817020142,10.81634739865144,0.6013183153225014
165.0,21.251471755492833,0.4738866453444486,0.011309817191931084,10.815841797657896,0.6013282001775972
166.0,21.255193712507015,0.47408427074236204,0.01130364293382534,10.815336280436968,0.6013387758646891
167.0,21.25891486813096,0.47428188350936423,0.011297471042378718,10.814830847084297,0.6013492856065464
168.0,21.26263522184232,0.47447948354642006,0.011291301517269425,10.814325497695501,0.6013583202018862
169.0,21.266354773119044,0.47467707075451754,0.011285134358178225,10.813820232366181,0.6013679267675532
170.0,21.27007352143945,0.47487464503466775,0.011278969564788398,10.81331505119192,0.60137832948186
171.0,21.27379146628215,0.475072206287908,0.011272807136785771,10.812809954268278,0.6013885487182773
172.0,21.277508607126123,0.4752697544152966,0.01126664707385884,10.812304941690797,0.6013987037070482
173.0,21.281224943450642,0.47546728931791565,0.011260489375698676,10.811800013554999,0.6014088388212799
174.0,21.284940474735347,0.4756648108968735,0.011254334041999044,10.811295169956386,0.601418978928478
175.0,21.28865520046019,0.4758623190533033,0.011248181072456365,10.810790410990437,0.6014294872885007
176.0,21.292369120105473,0.4760598136883611,0.011242030466769793,10.810285736752617,0.601440636944892
177.0,21.29608223315182,0.47625729470322886,0.01123588222464117,10.80978114733836,0.6014512071541822
178.0,21.299794539080207,0.4764547619991146,0.011229736345775019,10.809276642843086,0.601460071985151
179.0,21.30350603737192,0.47665221547725195,0.0112235928298787,10.808772223362192,0.6014687511446487
180.0,21.307216727508624,0.47684965503890003,0.011217451676662177,10.808267888991056,0.6014785030012726
181.0,21.31092660897228,0.4770470805853424,0.011211312885838248,10.807763639825026,0.6014880960368528
182.0,21.31463568124522,0.47724449201789204,0.011205176457122297,10.807259475959437,0.6014972630392136
183.0,21.318343943810095,0.477441889237888,0.011199042390232561,10.8067553974896,0.6015066007726878
184.0,21.32205139614992,0.47763927214669627,0.011192910684889918,10.806251404510798,0.6015162563904947
185.0,21.325758037748024,0.4778366406457066,0.011186781340817879,10.805747497118297,0.601525668401414
186.0,21.329463868088094,0.4780339946363439,0.011180654357742644,10.80524367540734,0.6015353852351926
187.0,21.333168886654164,0.4782313340200522,0.011174529735393126,10.804739939473142,0.6015455989210209
188.0,21.33687309293061,0.47842865869831014,0.011168407473500747,10.8042362894109,0.6015562459595792
189.0,21.34057648640215,0.4786259685726222,0.011162287571799568,10.803732725315786,0.6015666514623039
190.0,21.34427906655384,0.47882326354451693,0.011156170030026181,10.803229247282946,0.6015766452344061
191.0,21.3479808328711,0.4790205435155625,0.011150054847919694,10.802725855407507,0.6015864687500672
192.0,21.351681784839684,0.4792178083873461,0.011143942025221721,10.802222549784567,0.6015961948968558
193.0,21.355381921945696,0.4794150580614882,0.01113783156167629,10.801719330509203,0.6016058900817691
