k,PSNR,SSIM,mse,Log-Gradient,Angle
0.0,20.62752615396559,0.4412252659800897,0.0,10.900231517168379,0.5944121105719559
1.0,20.630678671227578,0.4413832193704354,0.0098989346289982,10.899803031259463,0.5997098841208947
2.0,20.63447916463579,0.441578508413254,0.01213083186807822,10.899290818974436,0.5997187971365394
3.0,20.638317040285834,0.44177636581625107,0.012301478688419114,10.898773895287658,0.5997291248226745
4.0,20.642157407926373,0.4419744734774786,0.012316173928539804,10.898256643024727,0.5997464318713428
5.0,20.645996932780747,0.44217259511787804,0.01231206509991524,10.897739480833076,0.5997593163675351
6.0,20.649835085104797,0.4423706911953114,0.0123044330333697,10.897222476082922,0.5997661625852722
7.0,20.653671739016396,0.44256875197341977,0.012295846945817167,10.896705645048318,0.5997782446439455
8.0,20.657506854275766,0.44276677427181044,0.012286920164394692,10.896188992800223,0.5997845286153893
9.0,20.66134041760091,0.4429647568964538,0.01227786302919074,10.895672521368942,0.5997911910443361
10.0,20.665172421968286,0.44316269915623013,0.012268737408154068,10.895156231832592,0.5997989709473338
11.0,20.669002862654132,0.4433606005505619,0.012259563090695069,10.894640124992389,0.5998064801775791
12.0,20.672831737810213,0.44355846082961214,0.012250367415992952,10.894124201364624,0.5998144611858853
13.0,20.67665904625073,0.44375627980915205,0.012241162861891853,10.893608461208755,0.5998220607035424
14.0,20.680484787183453,0.44395405732981913,0.012231953398634688,10.893092904726055,0.5998294148103833
15.0,20.684308959823014,0.4441517932373273,0.012222742480736595,10.892577532091083,0.5998395957594738
16.0,20.68813156369422,0.4443494874039878,0.012213534060040636,10.892062343448533,0.5998502648278731
17.0,20.69195259826232,0.4445471397004614,0.012204324899377662,10.891547338966166,0.599860362219504
18.0,20.695772063130256,0.4447447500058801,0.012195119443144825,10.891032518749162,0.5998701924433966
19.0,20.699589957988643,0.44494231820749247,0.012185918354998666,10.890517882907933,0.5998799140685769
20.0,20.703406282536363,0.4451398441914017,0.012176722391345091,10.890003431540547,0.5998896221947835
21.0,20.707221036442263,0.4453373278385075,0.012167531391309019,10.88948916473929,0.5998992683538779
22.0,20.711034219400823,0.44553476903419303,0.012158345754892325,10.888975082599845,0.5999088880966252
23.0,20.714845831139336,0.44573216766819596,0.012149165823066467,10.888461185212588,0.5999186918389501
24.0,20.71865587138425,0.44592952363005783,0.012139991589174259,10.8879474726658,0.5999286860973715
25.0,20.72246433983313,0.44612683680506243,0.012130822493105873,10.887433945040522,0.5999386748744172
26.0,20.72627123621183,0.4463241070828487,0.012121658882737085,10.886920602425516,0.5999486172275238
27.0,20.730076560245003,0.44652133435293545,0.01211250064862248,10.886407444909558,0.599958460524468
28.0,20.733880311669243,0.44671851850603655,0.012103348226187796,10.885894472577492,0.5999682726983079
29.0,20.737682490218297,0.4469156594324632,0.012094201520446797,10.88538168551319,0.5999780553724537
30.0,20.74148309561209,0.44711275702067294,0.012085060138645885,10.884869083798678,0.5999877644650412
31.0,20.745282127591732,0.447309811161865,0.012075924585161425,10.88435666751717,0.5999973815424541
32.0,20.749079585899658,0.4475068217473787,0.012066794866175701,10.883844436751474,0.6000071207738565
33.0,20.752875470271718,0.44770378866783106,0.012057670905927683,10.883332391583883,0.6000168388030466
34.0,20.756669780426435,0.44790071181193314,0.012048552510551756,10.882820532095941,0.6000266177398126
35.0,20.76046251610482,0.44809759107105235,0.01203943973605115,10.882308858367,0.6000363355249614
36.0,20.76425367705305,0.4482944263369953,0.012030332728123197,10.88179737047769,0.6000462309034205
37.0,20.768043263020335,0.44849121750183846,0.012021231556617374,10.881286068509148,0.600056050031263
38.0,20.771831273757083,0.4486879644578033,0.012012136222369147,10.88077495254227,0.6000658955730861
39.0,20.775617709014938,0.4488846670972367,0.012003046725725877,10.88026402265772,0.6000757672818438
40.0,20.779402568546736,0.44908132531262684,0.01199396306662693,10.879753278935937,0.6000856019148809
41.0,20.783185852106534,0.4492779389965933,0.01198488524466881,10.879242721457153,0.60009544392584
42.0,20.78696755944958,0.4494745080418953,0.011975813259158799,10.878732350301394,0.6001052721494006
43.0,20.79074769033231,0.44967103234142175,0.01196674710915915,10.878222165548491,0.6001150860582217
44.0,20.794526244512383,0.4498675117881999,0.011957686793523568,10.87771216727808,0.6001248318463809
45.0,20.79830322174861,0.450063946275393,0.011948632310927841,10.87720235556961,0.6001346505927655
46.0,20.802078621801048,0.4502603356962946,0.011939583659895385,10.876692730502343,0.6001444410774354
47.0,20.805852444430904,0.45045667994434035,0.011930540838818539,10.87618329215537,0.6001541747617165
48.0,20.809624689400575,0.4506529789130925,0.01192150384597691,10.875674040607594,0.6001639526031902
49.0,20.813395356473663,0.4508492324962586,0.01191247267955257,10.875164975937748,0.6001737249192133
50.0,20.817164445414953,0.45104544058767165,0.011903447337643203,10.874656098224392,0.600183578880772
51.0,20.820931955990414,0.4512416030813091,0.011894427818273223,10.874147407545916,0.6001935622879323
52.0,20.824697887967197,0.45143771987127845,0.011885414119403335,10.873638903980536,0.6002034491917145
53.0,20.828462241113645,0.4516337908518253,0.011876406238938828,10.873130587606305,0.6002133915642969
54.0,20.832225015199285,0.4518298159173319,0.0118674041747365,10.872622458501107,0.600223360930836
55.0,20.83598620999482,0.45202579496231654,0.011858407924611,10.872114516742657,0.6002332774246896
56.0,20.83974582527215,0.4522217278814337,0.011849417486339924,10.871606762408511,0.6002432296565609
57.0,20.843503860804343,0.45241761456947605,0.011840432857668599,10.871099195576058,0.6002530561729232
58.0,20.847260316365663,0.45261345492137073,0.011831454036314028,10.87059181632252,0.6002627195432245
59.0,20.85101519173156,0.4528092488321834,0.011822481019968446,10.870084624724962,0.600272172210034
60.0,20.854768486678648,0.4530049961971194,0.011813513806302392,10.869577620860282,0.6002814112907486
61.0,20.858520200982916,0.4532006969113262,0.011804552298453725,10.869070804805137,0.6002905835289715
62.0,20.862270334422103,0.4533963508701487,0.011795596521018631,10.868564176636033,0.6002996613209068
63.0,20.866018886776537,0.45359195796921536,0.011786646541698009,10.868057736429362,0.6003087406483327
64.0,20.869765857827694,0.4537875181042928,0.011777702358192258,10.867551484261362,0.6003178399865158
65.0,20.873511247358252,0.4539830311712892,0.011768763968183278,10.867045420208111,0.6003271055488902
66.0,20.87725505515207,0.45417849706624436,0.011759831369336548,10.86653954434552,0.6003368423662554
67.0,20.880997280994166,0.4543739156853464,0.011750904559303032,10.866033856749345,0.6003471207641963
68.0,20.88473792467077,0.45456928692491383,0.01174198353572065,10.865528357495181,0.6003573228225771
69.0,20.88847698596926,0.45476461068140733,0.011733068296215675,10.865023046658465,0.6003677083436562
70.0,20.89221446467821,0.454959886851433,0.011724158838403827,10.864517924314468,0.6003782973589135
71.0,20.895950360587378,0.45515511533172637,0.011715255159891361,10.864012990538306,0.6003889937229762
72.0,20.899684673487688,0.4553502960191711,0.01170635725827592,10.863508245404939,0.6003995921558468
73.0,20.903417403171254,0.4555454288107883,0.01169746513114726,10.863003688989158,0.6004099253745131
74.0,20.907148549431362,0.4557405136037374,0.011688578776088027,10.862499321365602,0.6004189057976426
75.0,20.910878112062477,0.45593555029532395,0.01167969819067422,10.861995142608748,0.600428465164315
76.0,20.914606090860254,0.4561305387829897,0.011670823372475927,10.861491152792913,0.6004392877388214
77.0,20.918332485621512,0.4563254789643174,0.01166195431905764,10.860987351992254,0.6004503069175366
78.0,20.92205729614426,0.45652037073703505,0.011653091027978712,10.86048374028077,0.6004613371116628
79.0,20.92578052222768,0.4567152139990072,0.01164423349679384,10.859980317732298,0.6004724087858259
80.0,20.929502163672133,0.45691000864824666,0.011635381723053223,10.859477084420519,0.6004832252409971
81.0,20.933222220279163,0.45710475458290073,0.011626535704303128,10.85897404041895,0.6004938045333615
82.0,20.93694069185149,0.45729945170126324,0.011617695438085936,10.85847118580095,0.6005040070690358
83.0,20.94065757819301,0.4574940999017723,0.011608860921940531,10.857968520639721,0.6005140642615262
84.0,20.9443728791088,0.4576886990830024,0.011600032153402497,10.8574660450083,0.6005244040354374
85.0,20.94808659440512,0.4578832491436784,0.011591209130004351,10.85696375897957,0.6005349516586415
86.0,20.951798723889397,0.458077749982663,0.011582391849275722,10.856461662626247,0.6005455067693448
87.0,20.955509267370253,0.4582722014989656,0.011573580308743543,10.855959756020892,0.6005559359201513
88.0,20.959218224657462,0.45846660359173425,0.011564774505932214,10.855458039235906,0.6005662407770315
89.0,20.962925595562012,0.45866095616026786,0.011555974438363734,10.854956512343525,0.6005764706356372
90.0,20.966631379896032,0.4588552591040031,0.01154718010355793,10.854455175415833,0.60058649507796
91.0,20.970335577472873,0.4590495123225238,0.011538391499032465,10.853954028524743,0.6005966916924547
92.0,20.97403818810701,0.4592437157155573,0.011529608622303083,10.853453071742017,0.6006068212908501
93.0,20.97773921161414,0.4594378691829774,0.011520831470883628,10.852952305139251,0.600616999323251
94.0,20.981438647811107,0.4596319726248006,0.011512060042286224,10.852451728787882,0.6006271243596712
95.0,20.985136496515967,0.4598260259411899,0.011503294334021379,10.851951342759186,0.6006370809944733
96.0,20.988832757547932,0.4600200290324525,0.011494534343598024,10.85145114712428,0.6006469976365778
97.0,20.992527430727385,0.46021398179904166,0.011485780068523717,10.850951141954118,0.600656751079185
98.0,20.996220515875898,0.4604078841415566,0.011477031506304509,10.850451327319492,0.6006662647061348
99.0,20.99991201281622,0.460601735960742,0.011468288654445368,10.849951703291037,0.6006751881374178
100.0,21.003601921372287,0.4607955371574888,0.011459551510449958,10.84945226993922,0.6006847502857441
101.0,21.00729024136919,0.46098928763283586,0.01145082007182085,10.848953027334357,0.6006943517254032
102.0,21.01097697263321,0.4611829872879667,0.011442094336059642,10.848453975546594,0.6007035728170498
103.0,21.014662114991815,0.46137663602421247,0.0114333743006669,10.847955114645917,0.6007126461567528
104.0,21.018345668273632,0.46157023374304895,0.011424659963142361,10.847456444702154,0.6007215220348151
105.0,21.022027632308475,0.46176378034610527,0.011415951320984904,10.846957965784966,0.6007306358400512
106.0,21.02570800692733,0.46195727573515155,0.011407248371692682,10.846459677963859,0.6007394631827508
107.0,21.029386791962374,0.4621507198121073,0.011398551112763161,10.845961581308172,0.6007480718680226
108.0,21.033063987246944,0.4623441124790419,0.011389859541693177,10.845463675887084,0.6007565494918378
109.0,21.036739592615557,0.46253745363817256,0.011381173655979002,10.844965961769608,0.6007668613237932
110.0,21.04041360790392,0.4627307431918624,0.011372493453116455,10.844468439024604,0.60077553351099
111.0,21.044086032948893,0.46292398104262306,0.011363818930600908,10.843971107720762,0.6007849644256301
112.0,21.04775686758854,0.46311716709311895,0.011355150085927322,10.843473967926611,0.6007945164657006
113.0,21.051426111662078,0.46331030124615963,0.011346486916590414,10.842977019710519,0.6008038122723358
114.0,21.055093765009914,0.46350338340470315,0.011337829420084617,10.84248026314069,0.6008129308334765
115.0,21.058759827473622,0.4636964134718613,0.01132917759390419,10.841983698285167,0.6008218956358683
116.0,21.062424298895976,0.4638893913508882,0.01132053143554324,10.841487325211832,0.6008308890871867
117.0,21.066087179120892,0.46408231694519575,0.011311890942495868,10.840991143988397,0.6008399498100863
118.0,21.069748467993477,0.4642751901583395,0.01130325611225614,10.840495154682419,0.6008490610922311
119.0,21.073408165360018,0.4644680108940297,0.01129462694231819,10.839999357361286,0.600858344837545
120.0,21.077066271067974,0.4646607790561201,0.011286003430176291,10.839503752092229,0.600867911870564
121.0,21.080722784965985,0.4648534945486234,0.011277385573324894,10.83900833894231,0.6008775263765317
122.0,21.08437770690385,0.46504615727569903,0.01126877336925875,10.838513117978431,0.6008870738050488
123.0,21.088031036732566,0.46523876714165446,0.01126016681547291,10.838018089267328,0.6008968276522483
124.0,21.091682774304278,0.4654313240509525,0.011251565909462852,10.837523252875576,0.6009068064916091
125.0,21.095332919472337,0.46562382790820456,0.01124297064872451,10.837028608869584,0.6009164760206704
126.0,21.098981472091246,0.4658162786181772,0.011234381030754411,10.8365341573156,0.6009268623923816
127.0,21.102628432016687,0.4660086760857817,0.011225797053049618,10.836039898279706,0.600937693519986
128.0,21.106273799105523,0.46620102021608867,0.011217218713108015,10.83554583182782,0.600949005109639
129.0,21.109917573215785,0.4663933109143166,0.01120864600842819,10.835051958025698,0.6009604470294341
130.0,21.113559754206687,0.4665855480858365,0.011200078936509685,10.834558276938928,0.6009712951598765
131.0,21.117200341938602,0.46677773163617226,0.011191517494852884,10.834064788632936,0.600981923012271
132.0,21.12083933627309,0.46696986147099834,0.01118296168095931,10.833571493172984,0.6009922630453537
133.0,21.124476737072875,0.4671619374961468,0.011174411492331638,10.83307839062417,0.6010023090387567
134.0,21.12811254420187,0.46735395961759885,0.011165866926473707,10.832585481051424,0.6010122098365217
135.0,21.131746757525146,0.4675459277414878,0.011157327980890743,10.832092764519516,0.6010219014258379
136.0,21.135379376908947,0.46773784177410205,0.011148794653089334,10.831600241093044,0.6010313337994498
137.0,21.1390104022207,0.4679297016218855,0.011140266940577737,10.831107910836451,0.6010407036836319
138.0,21.142639833328992,0.4681215071914316,0.01113174484086567,10.830615773814007,0.6010500184402169
139.0,21.146267670103896,0.46831325838959653,0.011123228310320815,10.83012383008773,0.6010594910986339
140.0,21.149893912416506,0.4685049551233349,0.011114717368845603,10.829632079720644,0.601069011077712
141.0,21.153518560138966,0.46869659729970253,0.011106212032999028,10.82914052277657,0.601078839741186
142.0,21.15714161314459,0.46888818482591504,0.011097712300367662,10.828649159319164,0.6010884308592858
143.0,21.160763071307848,0.4690797176093368,0.0110892181685386,10.828157989411922,0.6010977967178759
144.0,21.164382934504417,0.46927119555749136,0.011080729635099866,10.827667013118171,0.6011068402158163
145.0,21.168001202611105,0.46946261857805366,0.011072246697640578,10.827176230501074,0.6011157825225563
146.0,21.171617875505913,0.46965398657885754,0.01106376935375116,10.826685641623628,0.6011246311533629
147.0,21.175232953068,0.4698452994678879,0.011055297601023535,10.826195246548668,0.6011334377240719
148.0,21.178846435177718,0.4700365571532828,0.01104683143705121,10.82570504533886,0.6011422999650561
149.0,21.182458321716545,0.4702277595433471,0.011038370859429391,10.825215038056704,0.6011511295449342
150.0,21.186068612567176,0.4704189065465263,0.011029915865755077,10.824725224764538,0.6011602046652172
151.0,21.189677307613444,0.47060999807143084,0.011021466453627109,10.82423560552453,0.6011691643664225
152.0,21.19328440674036,0.470801034026827,0.01101302262064634,10.823746180398684,0.6011781250817542
153.0,21.196889909834105,0.4709920143216324,0.011004584364415574,10.823256949448838,0.6011870309063035
154.0,21.20049381678203,0.47118293886492485,0.010996151682539736,10.822767912736664,0.6011962649158971
155.0,21.204096127472628,0.4713738075659359,0.010987724572625885,10.822279070323663,0.6012056383000753
156.0,21.207696841795606,0.47156462033405333,0.01097930303228331,10.82179042227118,0.6012149281367508
157.0,21.211295959641795,0.47175537707882736,0.010970887059123533,10.82130196864038,0.6012240900231037
158.0,21.214893480903218,0.47194607770995534,0.010962476650760476,10.820813709492274,0.6012330665421493
159.0,21.218489405473058,0.47213672213729957,0.0109540718048104,10.820325644887696,0.6012419252569129
160.0,21.222083733245643,0.4723273102708769,0.010945672518892027,10.819837774887317,0.6012508362419825
161.0,21.2256764641165,0.4725178420208585,0.010937278790626595,10.819350099551642,0.6012600607849733
162.0,21.229267597982307,0.4727083172975776,0.010928890617637877,10.818862618941006,0.6012694166061744
163.0,21.2328571347409,0.47289873601152216,0.01092050799755226,10.818375333115581,0.6012788982592867
164.0,21.236445074291282,0.4730890980733385,0.010912130927998821,10.817888242135364,0.6012882126261045
165.0,21.240031416533625,0.47327940339382857,0.010903759406609282,10.817401346060192,0.6012973772971271
166.0,21.243616161369268,0.47346965188395823,0.010895393431018157,10.81691464494973,0.6013065944533702
167.0,21.247199308700697,0.4736598434548432,0.010887032998862728,10.816428138863474,0.6013157163536961
168.0,21.250780858431575,0.4738499780177639,0.010878678107783124,10.815941827860756,0.6013250062791781
169.0,21.254360810466725,0.474040055484156,0.010870328755422331,10.815455712000736,0.6013350251132787
170.0,21.257939164712134,0.4742300757656168,0.010861984939426214,10.814969791342408,0.6013451968752479
171.0,21.26151592107494,0.4744200387738961,0.010853646657443577,10.814484065944596,0.6013549912328414
172.0,21.265091079463453,0.47460994442091003,0.01084531390712622,10.813998535865956,0.6013626461382202
173.0,21.26866463978713,0.4747997926187266,0.010836986686128865,10.813513201164975,0.6013729794640628
174.0,21.272236601956614,0.4749895832795785,0.01082866499210927,10.813028061899972,0.6013828047067397
175.0,21.275806965883692,0.4751793163158539,0.010820348822728186,10.812543118129096,0.601392525196467
176.0,21.279375731481302,0.475368991640101,0.010812038175649416,10.812058369910327,0.6014022642309022
177.0,21.28294289866355,0.47555860916502884,0.010803733048539816,10.811573817301474,0.6014119479784609
178.0,21.286508467345705,0.4757481688035052,0.010795433439069252,10.811089460360183,0.6014215976990344
179.0,21.290072437444188,0.4759376704685561,0.01078713934491065,10.810605299143921,0.6014319577513418
180.0,21.293634808876586,0.4761271140733713,0.010778850763740033,10.810121333709994,0.6014426738489943
181.0,21.29719558156163,0.47631649953129324,0.010770567693236388,10.809637564115533,0.6014527069444681
182.0,21.300754755419224,0.4765058267558348,0.010762290131081839,10.809153990417501,0.6014611710780572
183.0,21.304312330370408,0.47669509566065865,0.010754018074961447,10.808670612672692,0.6014695916082257
184.0,21.3078683063374,0.47688430615959615,0.010745751522563329,10.808187430937727,0.6014789132434811
185.0,21.311422683243563,0.4770734581666322,0.010737490471578626,10.807704445269058,0.6014881041834353
186.0,21.314975461013404,0.47726255159591563,0.010729234919701435,10.80722165572297,0.6014969646107207
187.0,21.318526639572614,0.4774515863617574,0.010720984864628793,10.806739062355572,0.601505786849377
188.0,21.32207621884801,0.4776405623786248,0.010712740304060683,10.806256665222804,0.6015150150980849
189.0,21.325624198767578,0.4778294795611526,0.010704501235699996,10.805774464380441,0.601524132892275
190.0,21.32917057926045,0.47801833782412806,0.010696267657252477,10.805292459884077,0.6015332421905885
191.0,21.33271536025692,0.478207137082509,0.010688039566426721,10.804810651789147,0.6015426072587043
192.0,21.336258541688416,0.47839587725140653,0.010679816960934112,10.804329040150902,0.6015526391139918
193.0,21.339800123487542,0.478584558246097,0.010671599838488805,10.803847625024433,0.6015627458181395
