k,PSNR,SSIM,mse,Log-Gradient,Angle
0.0,20.62752615396559,0.4412252659800897,0.0,10.900231517168379,0.5944121105719559
1.0,20.63068003098333,0.44138328750468175,0.00990320375316166,10.89980284643348,0.599709888332722
2.0,20.634483523833556,0.44157872897129313,0.0121402662224694,10.899290228286366,0.5997188124773091
3.0,20.63832605532169,0.44177682426242243,0.01231619015663264,10.898772675548042,0.5997291399483263
4.0,20.642172736740836,0.4419752554434559,0.012336185469682046,10.898254570798917,0.5997464609505693
5.0,20.64602023343159,0.4421737863012578,0.012337377982382405,10.897736332621177,0.5997593846233739
6.0,20.64986801554074,0.44237237734261464,0.012335043621701732,10.897218028348997,0.5997661943576955
7.0,20.653715957022285,0.44257101887577893,0.012331750328113641,10.89669967422769,0.5997783617218232
8.0,20.657564017453996,0.44276970776343166,0.0123281110222321,10.896181275301911,0.5997847125108715
9.0,20.661412183363982,0.44296844285388964,0.012324335844403298,10.895662833576873,0.5997913948334653
10.0,20.665260447534408,0.4431672234979125,0.012320486601120948,10.895144350106305,0.5997992241487525
11.0,20.669108805043376,0.4433660492363656,0.01231658305179304,10.894625825667639,0.5998067785786887
12.0,20.67295725384215,0.4435649198605561,0.01231265249315754,10.894107260753838,0.599814801559218
13.0,20.676805792542183,0.4437638352271113,0.012308707387099493,10.89358865560144,0.5998224779692166
14.0,20.680654420146695,0.4439627952172756,0.012304751703667908,10.893070010389035,0.5998298267294288
15.0,20.684503135663714,0.444161799717095,0.012300788887962651,10.892551325268842,0.5998400338528562
16.0,20.68835193840975,0.44436084863896735,0.012296822889920778,10.892032600363443,0.5998508020149792
17.0,20.69220082763973,0.4445599418933779,0.01229285047311505,10.891513835818856,0.599860981622267
18.0,20.69604980274447,0.4447590793990288,0.012288876078165513,10.890995031718736,0.5998708890135832
19.0,20.69989886320085,0.4449582610824992,0.012284900370269063,10.890476188152226,0.5998807042416182
20.0,20.703748008492163,0.44515748686897205,0.012280924102995054,10.889957305196402,0.5998904902531729
21.0,20.707597238069972,0.44535675667817975,0.012276947120978267,10.889438382922792,0.599900229593026
22.0,20.711446551409644,0.44555607043408424,0.012272969823877001,10.888919421406587,0.5999099309717904
23.0,20.71529594801767,0.445755428064754,0.012268992553977183,10.888400420717915,0.599919825292838
24.0,20.719145427397972,0.4459548294978199,0.012265015307628701,10.887881380925066,0.599929930567875
25.0,20.722994989023782,0.4461542746564003,0.012261037529722211,10.887362302089329,0.5999400278501033
26.0,20.726844632395,0.44635376346772654,0.012257059572004887,10.886843184279938,0.5999500761462222
27.0,20.730694357008417,0.4465532958586513,0.012253081320495388,10.886324027566454,0.5999600274563193
28.0,20.73454416237109,0.44675287175697626,0.012249103214893935,10.885804832014719,0.599969962850908
29.0,20.73839404798559,0.44695249108986695,0.012245125165568383,10.885285597689867,0.5999798627080821
30.0,20.742244013338734,0.447152153782362,0.012241146780282416,10.884766324655414,0.5999896808242983
31.0,20.746094057936887,0.4473518597620001,0.012237168564711333,10.884247012976324,0.5999994242171353
32.0,20.74994418128597,0.447551608956214,0.0122331905274374,10.883727662717407,0.6000093118176801
33.0,20.75379438288374,0.44775140129148133,0.012229212597113688,10.883208273943204,0.6000191841806681
34.0,20.757644662208605,0.4479512366920902,0.012225234581094738,10.882688846717752,0.6000290990966624
35.0,20.761495018759852,0.44815111508474964,0.01222125653951263,10.882169381103136,0.6000390157583635
36.0,20.765345452040172,0.44835103639635787,0.012217278618450046,10.881649877162976,0.6000490558505838
37.0,20.769195961553557,0.448551000553836,0.01221330088967996,10.881130334961657,0.6000590075381862
38.0,20.773046546803464,0.44875100748399,0.012209323356447335,10.880610754563566,0.6000689997586163
39.0,20.77689720729282,0.44895105711351063,0.012205346021508608,10.880091136033114,0.6000790228919067
40.0,20.780747942524037,0.44915114936897305,0.012201368887211494,10.879571479434734,0.6000890315933795
41.0,20.78459875199899,0.44935128417683634,0.012197391955560119,10.879051784832907,0.600099056742413
42.0,20.788449635218992,0.4495514614634457,0.012193415228268214,10.878532052292153,0.6001090579013867
43.0,20.79230059168483,0.44975168115502345,0.012189438706803134,10.87801228187705,0.6001190320688519
44.0,20.796151620896737,0.44995194317768034,0.012185462392422384,10.877492473652232,0.6001289946946622
45.0,20.8000027223544,0.45015224745741084,0.012181486286203868,10.876972627682402,0.6001389747137061
46.0,20.803853895556948,0.4503525939200867,0.012177510389071451,10.876452744032326,0.6001489731106652
47.0,20.807705140002966,0.4505529824914645,0.012173534701816188,10.875932822766842,0.600158891159063
48.0,20.81155645519049,0.4507534130971858,0.012169559225114581,10.875412863950864,0.6001689006601588
49.0,20.815407840616977,0.4509538856627751,0.012165583959543577,10.87489286764938,0.6001788976999167
50.0,20.81925929577936,0.45115440011363434,0.012161608905593833,10.874372833927465,0.600189077065039
51.0,20.823110820173984,0.45135495637505124,0.012157634063680714,10.873852762850266,0.6001992436555167
52.0,20.826962413296656,0.45155555437219724,0.012153659434153813,10.873332654483022,0.6002093802567119
53.0,20.830814074642625,0.45175619403012046,0.01214968501730515,10.87281250889105,0.6002195882106055
54.0,20.834665803706557,0.45195687527375794,0.012145710813376249,10.872292326139759,0.6002297778546394
55.0,20.83851759998258,0.4521575980279254,0.012141736822564128,10.87177210629464,0.6002399630133218
56.0,20.842369462964268,0.45235836221731973,0.012137763045026805,10.87125184942128,0.6002500867079076
57.0,20.846221392144603,0.4525591677665253,0.012133789480887645,10.87073155558535,0.6002600412110163
58.0,20.85007338701604,0.4527600146000034,0.01212981613023963,10.870211224852612,0.6002698232765252
59.0,20.85392544707044,0.45296090264209954,0.012125842993148625,10.869690857288921,0.6002793552567841
60.0,20.857777571799126,0.45316183181704245,0.012121870069656619,10.869170452960224,0.6002887995894098
61.0,20.861629760691393,0.45336280204878654,0.012117897284596089,10.868650011932495,0.6002981415843797
62.0,20.865482013235823,0.4535638132611577,0.012113924629174584,10.868129534271773,0.6003074814741552
63.0,20.8693343289222,0.4537648653780402,0.012109952189856986,10.867609020044272,0.6003168490879808
64.0,20.87318670723971,0.4539659583232069,0.012105979966705357,10.867088469316291,0.600326367138027
65.0,20.877039147676992,0.45416709202030536,0.012102007959760871,10.866567882154232,0.6003363461482839
66.0,20.880891649722116,0.4543682663928714,0.012098036169046,10.866047258624587,0.6003469277286858
67.0,20.88474421286257,0.45456948136432357,0.012094064594566297,10.865526598793945,0.6003574407452038
68.0,20.888596836585293,0.45477073685795905,0.01209009323631207,10.865005902728992,0.6003681617444137
69.0,20.89244952037666,0.45497203279696125,0.012086122094259516,10.864485170496511,0.6003790948803661
70.0,20.89630226372246,0.45517336910439526,0.012082151168372107,10.863964402163383,0.6003901322209377
71.0,20.900155066107928,0.4553747457032054,0.012078180458601458,10.863443597796582,0.6004010551828907
72.0,20.904007927017744,0.45557616251622424,0.012074209964888286,10.862922757463185,0.6004116014777174
73.0,20.90786084593599,0.45577761946616463,0.012070239687163111,10.86240188123036,0.6004206430609341
74.0,20.911713822346208,0.45597911647562245,0.012066269625347067,10.861880969165378,0.600431097794805
75.0,20.915566855731363,0.4561806534670733,0.012062299779352406,10.861360021335608,0.6004423591713531
76.0,20.91941994557384,0.45638223036288283,0.01205833014908302,10.860839037808514,0.600453727756501
77.0,20.923273091355483,0.4565838470852939,0.012054360734435061,10.860318018651663,0.6004651798252089
78.0,20.927126292557546,0.45678550355643704,0.01205039153529728,10.859796963932716,0.600476599565586
79.0,20.930979548660716,0.45698719969831886,0.012046422551551375,10.859275873719435,0.6004877039659484
80.0,20.934832859145125,0.4571889354328372,0.01204245378307245,10.858754748079681,0.6004985008429368
81.0,20.938686223490322,0.45739071068176695,0.01203848522972929,10.858233587081417,0.6005089799128022
82.0,20.942539641175294,0.457592525366771,0.0120345168913846,10.857712390792699,0.6005195257779395
83.0,20.946393111678468,0.45779437940939255,0.012030548767895353,10.857191159281689,0.6005304563910868
84.0,20.950246634477686,0.45799627273106047,0.012026580859112951,10.856669892616644,0.6005414454373702
85.0,20.95410020905024,0.45819820525308486,0.012022613164883577,10.85614859086592,0.6005523313466832
86.0,20.957953834872825,0.4584001768966626,0.012018645685048223,10.855627254097982,0.6005630720335803
87.0,20.961807511421608,0.4586021875828721,0.01201467841944302,10.855105882381382,0.6005737603544415
88.0,20.965661238172153,0.458804237232675,0.012010711367899368,10.854584475784781,0.600584224757908
89.0,20.969515014599462,0.45900632576691813,0.012006744530244081,10.854063034376939,0.600594788330369
90.0,20.97336884017798,0.45920845310633357,0.01200277790629953,10.853541558226711,0.6006053820044053
91.0,20.977222714381575,0.459410619171533,0.011998811495883877,10.85302004740306,0.6006160049095651
92.0,20.981076636683543,0.45961282388301833,0.01199484529881114,10.852498501975044,0.6006265834328992
93.0,20.984930606556627,0.4598150671611705,0.01199087931489125,10.851976922011826,0.6006369800643347
94.0,20.988784623472974,0.46001734892625756,0.011986913543930331,10.851455307582665,0.6006473252792348
95.0,20.992638686904186,0.46021966909842993,0.011982947985730703,10.850933658756924,0.600657543109584
96.0,20.99649279632129,0.46042202759772405,0.01197898264009101,10.850411975604068,0.6006674152491847
97.0,21.00034695119474,0.46062442434406003,0.011975017506806365,10.849890258193659,0.6006766549018667
98.0,21.00420115099442,0.4608268592572459,0.011971052585668376,10.849368506595363,0.6006868622584552
99.0,21.008055395189643,0.4610293322569677,0.011967087876465339,10.84884672087895,0.6006967865249362
100.0,21.01190968324916,0.46123184326280153,0.011963123378982261,10.848324901114282,0.6007063339995226
101.0,21.015764014641164,0.46143439219420807,0.011959159093000903,10.847803047371334,0.6007158238610052
102.0,21.01961838883326,0.46163697897052924,0.011955195018300046,10.847281159720175,0.6007251865497194
103.0,21.023472805292478,0.461839603510997,0.011951231154655377,10.846759238230979,0.6007346278853228
104.0,21.027327263485304,0.46204226573472607,0.011947267501839677,10.846237282974016,0.600743742666099
105.0,21.031181762877637,0.4622449655607161,0.01194330405962287,10.84571529401967,0.6007529256690827
106.0,21.035036302934817,0.4624477029078507,0.01193934082777213,10.84519327143841,0.6007631206450867
107.0,21.03889088312161,0.4626504776949028,0.011935377806051948,10.84467121530082,0.6007725094336355
108.0,21.04274550290221,0.4628532898405278,0.01193141499422416,10.844149125677585,0.6007821528660496
109.0,21.04660016174026,0.4630561392632672,0.01192745239204809,10.843627002639485,0.6007922682950025
110.0,21.0504548590988,0.46325902588155055,0.011923489999280588,10.843104846257406,0.60080213105218
111.0,21.05430959444034,0.4634619496136901,0.011919527815676106,10.842582656602339,0.600811774085562
112.0,21.0581643672268,0.4636649103778851,0.0119155658409868,10.84206043374537,0.6008212701522019
113.0,21.062019176919534,0.463867908092221,0.011911604074962563,10.841538177757698,0.6008307759279093
114.0,21.06587402297933,0.464070942674669,0.011907642517351137,10.841015888710613,0.6008403466990634
115.0,21.069728904866412,0.46427401404308904,0.01190368116789813,10.840493566675516,0.6008499663613865
116.0,21.07358382204042,0.4644771221152242,0.011899720026347168,10.839971211723906,0.6008598325004234
117.0,21.077438773960438,0.4646802668087049,0.011895759092439919,10.839448823927388,0.6008699651989456
118.0,21.081293760084993,0.4648834480410457,0.011891798365916143,10.838926403357664,0.6008801636098718
119.0,21.08514877987202,0.46508666572965546,0.011887837846513875,10.838403950086544,0.60089020160153
120.0,21.089003832778907,0.4652899197918205,0.0118838775339694,10.837881464185942,0.6009008514771484
121.0,21.092858918262447,0.4654932101447197,0.011879917428017306,10.83735894572787,0.6009113193807077
122.0,21.0967140357789,0.46569653670541705,0.011875957528390737,10.836836394784443,0.600921690209344
123.0,21.10056918478393,0.46589989939086546,0.01187199783482134,10.836313811427884,0.6009331925112374
124.0,21.104424364732655,0.46610329811789947,0.011868038347039308,10.835791195730513,0.6009450423238287
125.0,21.1082795750796,0.46630673280325113,0.011864079064773608,10.835268547764759,0.6009571190709856
126.0,21.112134815278747,0.46651020336352716,0.011860119987751964,10.83474586760315,0.6009688382369583
127.0,21.1159900847835,0.46671370971523185,0.011856161115701019,10.834223155318318,0.6009801247320267
128.0,21.119845383046687,0.46691725177475196,0.01185220244834636,10.833700410982999,0.6009912433456966
129.0,21.123700709520588,0.46712082945836264,0.011848243985412666,10.833177634670031,0.6010019238791576
130.0,21.127556063656904,0.46732444268222945,0.011844285726623844,10.832654826452357,0.6010122977195257
131.0,21.131411444906764,0.4675280913624042,0.011840327671702988,10.83213198640302,0.6010224480562618
132.0,21.135266852720743,0.4677317754148249,0.011836369820372688,10.831609114595171,0.6010323778119144
133.0,21.13912228654884,0.4679354947553207,0.011832412172354942,10.831086211102063,0.6010423923374462
134.0,21.142977745840486,0.4681392492996066,0.011828454727371455,10.830563275997047,0.6010524029359215
135.0,21.146833230044546,0.4683430389632878,0.011824497485143557,10.830040309353587,0.6010627010942227
136.0,21.150688738609368,0.46854686366187,0.011820540439703946,10.829517311244928,0.601072886647772
137.0,21.154544270983063,0.46875072331088524,0.011816583542906848,10.828994281741805,0.6010827508369012
138.0,21.15839982661282,0.46895461782560394,0.01181262684807221,10.828471220918026,0.601092295308801
139.0,21.162255404945284,0.4691585471211847,0.011808670354993112,10.827948128847511,0.6011014885235643
140.0,21.166111005426515,0.46936251111267846,0.011804714063461346,10.827425005604281,0.6011109592911691
141.0,21.169966627502028,0.4695665097150255,0.011800757973267888,10.826901851262463,0.6011204202994911
142.0,21.17382227061674,0.46977054284305014,0.011796802084203252,10.826378665896286,0.6011298947650111
143.0,21.177677934215033,0.469974610411472,0.011792846396057596,10.825855449580084,0.6011395473388631
144.0,21.181533617740705,0.47017871233489733,0.011788890908621013,10.8253322023883,0.6011491887811057
145.0,21.185389320636993,0.4703828485278216,0.01178493562168371,10.824808924395475,0.6011591169393927
146.0,21.18924504234656,0.4705870189046286,0.011780980535036073,10.82428561567626,0.6011689407042229
147.0,21.19310078231151,0.4707912233795945,0.011777025648468727,10.823762276305409,0.6011786905992772
148.0,21.196956539973392,0.47099546186688396,0.011773070961772823,10.823238906357778,0.6011883880216898
149.0,21.200812314773163,0.47119973428055156,0.011769116474739962,10.82271550590833,0.601198629163597
150.0,21.204668106151235,0.4714040405345426,0.011765162187162408,10.822192075032133,0.6012086993533207
151.0,21.208523913547445,0.4716083805426922,0.01176120809883305,10.82166861380436,0.6012186854368894
152.0,21.21237973640106,0.47181275421872515,0.011757254209545594,10.821145122300283,0.6012284698663036
153.0,21.2162355741508,0.47201716147625566,0.011753300519094628,10.820621600595286,0.6012380168600888
154.0,21.220091426234795,0.4722216022287908,0.011749347027275646,10.820098048764855,0.6012476281455722
155.0,21.22394729209062,0.4724260763897295,0.01174539373388522,10.819574466884578,0.6012574941224111
156.0,21.22780317115529,0.4726305838723543,0.01174144063872098,10.81905085503015,0.6012676384271002
157.0,21.231659062865248,0.4728351245898475,0.011737487741581775,10.81852721327737,0.6012780031490815
158.0,21.235514966656368,0.47303969845527755,0.011733535042267706,10.818003541702144,0.6012880541160129
159.0,21.23937088196397,0.4732443053816024,0.0117295825405802,10.817479840380477,0.6012980028759028
160.0,21.243226808222783,0.47344894528167475,0.011725630236322108,10.81695610938848,0.6013079783986616
161.0,21.247082744867008,0.47365361806823864,0.011721678129297738,10.816432348802374,0.6013177938515547
162.0,21.250938691330255,0.4738583236539266,0.011717726219312998,10.815908558698478,0.601328041570504
163.0,21.25479464704558,0.47406306195126646,0.011713774506175334,10.815384739153217,0.6013390007433153
164.0,21.25865061144546,0.47426783287267543,0.011709822989693901,10.814860890243123,0.6013498944402128
165.0,21.262506583961812,0.47447263633046116,0.011705871669679633,10.81433701204483,0.6013590333279879
166.0,21.266362564026,0.47467747223682594,0.011701920545945198,10.813813104635074,0.6013694177607786
167.0,21.270218551068815,0.4748823405038616,0.011697969618305123,10.813289168090702,0.6013800876598693
168.0,21.27407454452047,0.47508724104355676,0.011694018886575838,10.81276520248866,0.6013906920319391
169.0,21.277930543810633,0.47529217376778693,0.01169006835057573,10.812241207905998,0.6014012665951509
170.0,21.2817865483684,0.4754971385883237,0.011686118010125174,10.811717184419873,0.6014118887366379
171.0,21.28564255762231,0.4757021354168305,0.011682167865046507,10.811193132107547,0.601422493255728
172.0,21.28949857100031,0.4759071641648613,0.011678217915164213,10.810669051046382,0.6014335900328872
173.0,21.293354587929816,0.4761122247438659,0.011674268160304774,10.810144941313846,0.6014449346147885
174.0,21.297210607837656,0.4763173170651855,0.011670318600296884,10.809620802987512,0.6014551670336432
175.0,21.30106663015011,0.47652244104005304,0.01166636923497129,10.809096636145059,0.6014639442345534
176.0,21.304922654292877,0.47672759657959946,0.01166242006416092,10.808572440864264,0.6014735926614765
177.0,21.30877867969111,0.4769327835948442,0.01165847108770088,10.808048217223014,0.6014837944753411
178.0,21.312634705769376,0.4771380019967004,0.011654522305428433,10.807523965299296,0.601493393294603
179.0,21.3164907319517,0.47734325169598035,0.011650573717183055,10.806999685171206,0.601502893870217
180.0,21.320346757661532,0.4775485326033832,0.01164662532280636,10.806475376916937,0.6015130414746442
181.0,21.324202782321752,0.4777538446295064,0.011642677122142132,10.805951040614792,0.6015228637336042
182.0,21.328058805354694,0.4779591876848382,0.011638729115036401,10.805426676343174,0.6015328335683983
183.0,21.331914826182103,0.4781645616797652,0.01163478130133726,10.804902284180592,0.6015436133152903
184.0,21.33577084422518,0.47836996652456376,0.011630833680894995,10.804377864205657,0.6015547062774093
185.0,21.339626858904566,0.4785754021294088,0.011626886253561997,10.803853416497088,0.6015655780786843
186.0,21.343482869640326,0.4787808684043664,0.011622939019192782,10.8033289411337,0.6015760176520399
187.0,21.347338875851953,0.4789863652594016,0.011618991977643904,10.80280443819442,0.6015862403294457
188.0,21.351194876958402,0.47919189260436795,0.011615045128773996,10.802279907758274,0.6015963211961944
189.0,21.355050872378033,0.47939745034901926,0.011611098472443689,10.801755349904393,0.6016064048315038
190.0,21.358906861528688,0.4796030384030055,0.011607152008515594,10.801230764712013,0.6016167771213453
191.0,21.362762843827593,0.4798086566758634,0.011603205736854265,10.800706152260469,0.601627015731301
192.0,21.36661881869145,0.4800143050770376,0.011599259657326158,10.800181512629205,0.6016369308923294
193.0,21.370474785536384,0.4802199835158583,0.01159531376979955,10.799656845897765,0.6016461458465215
