k,PSNR,SSIM,mse,Log-Gradient,Angle
0.0,20.62752615396559,0.4412252659800897,0.0,10.900231517168379,0.5944121105719559
1.0,20.630679984608705,0.4413832851809543,0.009903058154212198,10.899802852736991,0.5997098881890778
2.0,20.634483375143304,0.4415787214481665,0.01213994440234623,10.899290248434477,0.599718811954374
3.0,20.63832574778158,0.441776808622957,0.01231568822605159,10.89877271715843,0.5997291394319927
4.0,20.6421722137404,0.44197522876378104,0.012335502570708,10.8982546415008,0.5997464599597544
5.0,20.646019438332722,0.44217374565403517,0.012336513996591216,10.897736440049188,0.5997593822978661
6.0,20.649866891685427,0.44237231979761243,0.012333998597920963,10.897218180142193,0.5997661932267295
7.0,20.653714447734444,0.44257094150000986,0.012330524358777632,10.896699878029304,0.5997783577290018
8.0,20.657562066040086,0.4427696076212082,0.012326704213733441,10.896181538759276,0.5997847062388216
9.0,20.66140973311324,0.44296831700685035,0.012322748310045968,10.89566316434138,0.5997913878780367
10.0,20.665257441718996,0.4431670690050249,0.012318718456408717,10.895144755833394,0.5997992155073376
11.0,20.669105186918493,0.4433658631539467,0.01231463441335819,10.894626314016767,0.5998067683820923
12.0,20.67295296664609,0.4435646992422775,0.012310523479184312,10.894107839388486,0.599814789937957
13.0,20.676800779496393,0.443763577124005,0.01230639811642236,10.893589332189084,0.5998224637356057
14.0,20.68064862445584,0.4439624966777438,0.012302262295234394,10.89307079260116,0.5998298126614806
15.0,20.6844965005157,0.4441614577869149,0.012298119461147559,10.892552220780921,0.5998400189034075
16.0,20.688344406975794,0.4443604603612941,0.012293973564270179,10.892033616854938,0.5998507836589791
17.0,20.69219234307441,0.4445595043087556,0.01228982136825688,10.891514980973213,0.5998609604584381
18.0,20.696040308185758,0.44475858954539516,0.01228566731396271,10.890996313223381,0.5998708652253383
19.0,20.699888301770155,0.4449577159951903,0.012281512066638791,10.89047761369855,0.5998806772534924
20.0,20.703736323294386,0.4451568835807314,0.012277356380057851,10.88995888247977,0.5998904606007591
21.0,20.70758437219354,0.44535609221915967,0.012273200098773739,10.889440119642531,0.5999001967232622
22.0,20.711432447926587,0.4455553418318552,0.012269043622563211,10.888921325265983,0.5999098953206414
23.0,20.715280549983607,0.44575463234431084,0.012264887293774118,10.888402499424206,0.5999197865683548
24.0,20.71912867785221,0.44595396368158574,0.012260731108760857,10.887883642189445,0.5999298879905426
25.0,20.72297683098934,0.4461533357642365,0.012256574512350661,10.887364753626931,0.5999399815057107
26.0,20.72682500887864,0.4463527485169332,0.012252417856265477,10.886845833809842,0.5999500262249604
27.0,20.730673211000713,0.4465522018639787,0.012248261026785404,10.886326882811673,0.599959973876709
28.0,20.734521436846464,0.446751695730631,0.012244104463571884,10.885807900702199,0.5999699049865467
29.0,20.73836968590235,0.44695123004150866,0.01223994807691745,10.88528888755048,0.5999798008486291
30.0,20.742217957639117,0.4471508047191239,0.01223579147467493,10.884769843423959,0.5999896153296541
31.0,20.746066251547145,0.44735041968848716,0.012231635162582147,10.884250768391516,0.5999993542593766
32.0,20.749914567116345,0.4475500748745081,0.012227479149246595,10.883731662521871,0.600009236806044
33.0,20.75376290382858,0.4477497702011524,0.01222332336327817,10.883212525883481,0.6000191035008027
34.0,20.757611261146355,0.447949505590195,0.012219167612096474,10.882693358544286,0.6000290141956642
35.0,20.761459638553134,0.4481492809658489,0.012215011955800359,10.88217416057027,0.6000389237771149
36.0,20.765308035535814,0.4483490962525131,0.01221085654056575,10.881654932028953,0.6000489592221818
37.0,20.769156451582653,0.44854895137462086,0.012206701438207302,10.881135672988608,0.6000589060949578
38.0,20.773004886181404,0.44874884625649414,0.012202546651994842,10.88061638351751,0.6000688936141009
39.0,20.77685333881935,0.4489487808223463,0.012198392184709776,10.880097063683948,0.6000789114935708
40.0,20.78070180898331,0.44914875499628465,0.012194238038724858,10.87957771355624,0.6000889140017218
41.0,20.784550296159573,0.4493487687023039,0.012190084216069175,10.87905833320273,0.6000989329956171
42.0,20.78839879983397,0.4495488218642878,0.012185930718481605,10.878538922691815,0.6001089276106593
43.0,20.792247319491803,0.449748914406014,0.012181777547454621,10.878019482091933,0.6001188968522301
44.0,20.796095854617906,0.44994904625114657,0.012177624704270957,10.877500011471577,0.600128851883513
45.0,20.79994440469658,0.450149217323238,0.012173472190033808,10.876980510899301,0.6001388262497034
46.0,20.803792969211642,0.45034942754573337,0.012169320005692357,10.87646098044372,0.6001488182327865
47.0,20.807641547646398,0.4505496768419653,0.012165168152063192,10.87594142017352,0.6001587284477042
48.0,20.811490139483652,0.4507499651351526,0.012161016629848203,10.875421830157453,0.6001687308730305
49.0,20.815338744205683,0.45095029234841005,0.012156865439650017,10.874902210464342,0.6001787184091296
50.0,20.81918736129428,0.45115065840473584,0.012152714581984983,10.874382561163088,0.6001888880703011
51.0,20.823035990230714,0.45135106322701796,0.0121485640572942,10.873862882322669,0.600199049378468
52.0,20.826884630495748,0.4515515067380342,0.012144413865953113,10.87334317401214,0.6002091764971408
53.0,20.830733281569632,0.4517519888604518,0.012140264008279743,10.872823436300635,0.600219375823709
54.0,20.834581942932108,0.4519525095168249,0.012136114484541584,10.87230366925737,0.6002295582763947
55.0,20.838430614062396,0.45215306862960203,0.012131965294961872,10.871783872951648,0.6002397335993901
56.0,20.842279294439216,0.45235366612111255,0.012127816439724763,10.871264047452847,0.6002498518741255
57.0,20.846127983540764,0.4525543019135824,0.012123667918980051,10.870744192830442,0.6002598001861768
58.0,20.84997668084474,0.4527549759291201,0.012119519732847061,10.87022430915398,0.6002695822173204
59.0,20.8538253858283,0.4529556880897312,0.012115371881418193,10.869704396493102,0.6002791101381745
60.0,20.857674097968122,0.45315643831730085,0.012111224364762065,10.869184454917539,0.6002885468844241
61.0,20.861522816738862,0.4533572265334549,0.012107077107084033,10.868664484497033,0.6002978815719756
62.0,20.865371541614586,0.45355805265969523,0.012102930100827844,10.868144485301405,0.6003072118135447
63.0,20.869220272070553,0.45375891661758855,0.012098783431930767,10.867624457400622,0.6003165707046516
64.0,20.8730690075815,0.45395981832859644,0.01209463710048191,10.86710440086475,0.6003260736741027
65.0,20.87691774762164,0.4541607577140659,0.012090491106549568,10.866584315763944,0.6003360137199195
66.0,20.880766491664694,0.45436173469523466,0.012086345450183457,10.866064202168445,0.6003465810952219
67.0,20.884615239183848,0.4545627491932302,0.01208220013141652,10.86554406014859,0.600357086461958
68.0,20.88846398965178,0.4547638011290678,0.012078055150266422,10.8650238897748,0.6003677840023495
69.0,20.892312742540632,0.4549648904236567,0.012073910506737003,10.864503691117596,0.6003787004159864
70.0,20.89616149732205,0.4551660169977915,0.01206976620081932,10.863983464247585,0.6003897254667236
71.0,20.900010253467162,0.4553671807721587,0.012065622232492789,10.863463209235467,0.6004006413269224
72.0,20.903859010446567,0.45556838166733327,0.012061478601725968,10.862942926152034,0.6004112112017603
73.0,20.907707767730347,0.4557696196037789,0.012057335308477357,10.862422615068171,0.6004202924235541
74.0,20.911556524788082,0.45597089450185607,0.012053192352696153,10.861902276054858,0.6004306359807736
75.0,20.915405281088823,0.4561722062818072,0.012049049734322782,10.86138190918316,0.6004418710955777
76.0,20.91925403610109,0.4563735548637662,0.01204490745328938,10.860861514524247,0.6004532319298174
77.0,20.923102789292926,0.456574940167763,0.01204076550952054,10.860341092149369,0.6004646631804046
78.0,20.92695154013181,0.45677636211371064,0.01203662390293346,10.859820642129879,0.6004760804772246
79.0,20.93080028808474,0.4569778206214182,0.012032482633438457,10.85930016453722,0.6004871815432896
80.0,20.934649032618168,0.4571793156105816,0.012028341700939298,10.858779659442929,0.6004979881364777
81.0,20.93849777319805,0.45738084700078757,0.012024201105333565,10.858259126918636,0.6005084638239042
82.0,20.94234650928982,0.45758241471151706,0.012020060846512871,10.857738567036064,0.6005189743018994
83.0,20.946195240358385,0.4577840186621372,0.01201592092436325,10.857217979867032,0.6005298776675253
84.0,20.950043965868144,0.45798565877190706,0.012011781338765183,10.856697365483454,0.6005408584209714
85.0,20.95389268528298,0.45818733495998015,0.01200764208959406,10.856176723957336,0.6005517378105786
86.0,20.95774139806625,0.45838904714539536,0.012003503176720224,10.855656055360779,0.6005624728930192
87.0,20.9615901036808,0.4585907952470876,0.011999364600009223,10.855135359765976,0.6005731522987666
88.0,20.965438801588956,0.45879257918387967,0.01199522635932198,10.854614637245222,0.6005836119152449
89.0,20.96928749125254,0.45899439887449,0.011991088454514983,10.854093887870897,0.6005941434741181
90.0,20.973136172132833,0.4591962542375206,0.011986950885440332,10.853573111715484,0.6006047396511545
91.0,20.97698484369062,0.45939814519147476,0.011982813651946074,10.853052308851554,0.6006153309520336
92.0,20.98083350538616,0.4596000716547381,0.011978676753876105,10.852531479351779,0.6006259066055383
93.0,20.98468215667919,0.45980203354559396,0.011974540191070504,10.85201062328892,0.6006362917207603
94.0,20.98853079702895,0.46000403078221813,0.011970403963365515,10.85148974073584,0.6006466360678684
95.0,20.992379425894146,0.4602060632826717,0.01196626807059375,10.85096883176549,0.6006568387649084
96.0,20.99622804273298,0.460408130964916,0.011962132512584251,10.850447896450921,0.6006667424337555
97.0,21.000076647003112,0.46061023374679655,0.01195799728916257,10.84992693486528,0.600676013885612
98.0,21.003925238161727,0.46081237154605853,0.011953862400150941,10.849405947081802,0.6006861143620611
99.0,21.007773815665452,0.46101454428033395,0.01194972784536835,10.848884933173828,0.6006960628848904
100.0,21.011622378970436,0.46121675186715083,0.011945593624630556,10.848363893214787,0.6007056205667359
101.0,21.01547092753229,0.461418994223927,0.011941459737750335,10.847842827278205,0.6007150960192917
102.0,21.019319460806113,0.46162127126797464,0.01193732618453737,10.847321735437705,0.6007244223619405
103.0,21.023167978246484,0.46182358291649717,0.011933192964798492,10.846800617767006,0.6007338753484199
104.0,21.027016479307477,0.46202592908659246,0.011929060078337704,10.846279474339921,0.600743004547016
105.0,21.03086496344265,0.4622283096952526,0.011924927524956304,10.84575830523036,0.600752160814229
106.0,21.03471343010503,0.462430724659359,0.011920795304452834,10.845237110512329,0.6007617157648272
107.0,21.03856187874716,0.4626331738956884,0.011916663416623324,10.84471589025993,0.6007717073549729
108.0,21.04241030882104,0.46283565732091175,0.011912531861261283,10.844194644547361,0.6007812812715738
109.0,21.04625871977817,0.46303817485159376,0.011908400638157755,10.843673373448913,0.6007913583325917
110.0,21.050107111069522,0.4632407264041891,0.011904269747101433,10.843152077038981,0.6008012262044665
111.0,21.053955482145575,0.4634433118950487,0.011900139187878751,10.842630755392046,0.6008108695903362
112.0,21.05780383245627,0.46364593124041864,0.011896008960273877,10.842109408582692,0.6008203645686986
113.0,21.061652161451057,0.463848584356435,0.011891879064068894,10.841588036685598,0.6008298332411163
114.0,21.06550046857886,0.4640512711591316,0.011887749499043814,10.84106663977554,0.6008393827826374
115.0,21.06934875328808,0.4642539915644364,0.011883620264976557,10.840545217927387,0.6008489937180737
116.0,21.073197015026636,0.4644567454881701,0.011879491361643282,10.840023771216106,0.6008587878431754
117.0,21.077045253241906,0.46465953284604655,0.011875362788818206,10.839502299716765,0.6008688907721575
118.0,21.080893467380747,0.4648623535536765,0.011871234546273762,10.838980803504521,0.6008790678492378
119.0,21.084741656889534,0.46506520752656577,0.011867106633780747,10.838459282654632,0.600889098221796
120.0,21.088589821214118,0.46526809468011154,0.011862979051108339,10.837937737242452,0.6008996605593407
121.0,21.092437959799824,0.4654710149296082,0.011858851798024171,10.837416167343433,0.6009101306466486
122.0,21.096286072091488,0.46567396819024554,0.011854724874294391,10.836894573033119,0.6009204014905959
123.0,21.1001341575334,0.46587695437711013,0.011850598279683862,10.836372954387153,0.600931840794263
124.0,21.103982215569378,0.4660799734051794,0.011846472013956073,10.835851311481278,0.6009435847511135
125.0,21.1078302456427,0.4662830251893273,0.011842346076873385,10.83532964439133,0.6009556401030346
126.0,21.111678247196146,0.4664861096443293,0.01183822046819703,10.834807953193243,0.6009674312423122
127.0,21.115526219671974,0.46668922668484764,0.011834095187687204,10.834286237963047,0.6009787013981669
128.0,21.11937416251195,0.46689237622544644,0.011829970235103234,10.833764498776869,0.6009898540548705
129.0,21.1232220751573,0.4670955581805812,0.011825845610203578,10.833242735710934,0.601000561785217
130.0,21.127069957048775,0.467298772464609,0.01182172131274601,10.832720948841564,0.6010109406916595
131.0,21.130917807626584,0.4675020189917786,0.011817597342487681,10.832199138245175,0.6010211055070499
132.0,21.134765626330445,0.4677052976762371,0.011813473699185215,10.831677303998282,0.6010310326348823
133.0,21.138613412599554,0.4679086084320276,0.011809350382594843,10.831155446177497,0.6010410309423501
134.0,21.142461165872604,0.46811195117309007,0.011805227392472542,10.83063356485953,0.6010510038259052
135.0,21.14630888558778,0.46831532581325935,0.011801104728574072,10.830111660121187,0.6010612548637969
136.0,21.150156571182748,0.46851873226627355,0.011796982389683344,10.829589732039313,0.6010714414306163
137.0,21.154004222095097,0.468722170445919,0.011792860318219973,10.829067780687721,0.6010813334075235
138.0,21.157851837761502,0.4689256402657249,0.011788738572292153,10.828545806143547,0.6010909009633582
139.0,21.16169941761815,0.4691291416391206,0.011784617151727825,10.828023808484028,0.6011001258012126
140.0,21.165546961100702,0.46933267447942595,0.011780496056353737,10.827501787786503,0.6011095642697052
141.0,21.16939446764432,0.4695362386998653,0.011776375285995906,10.826979744128401,0.6011190225412454
142.0,21.173241936683663,0.4697398342135523,0.011772254840479873,10.826457677587255,0.6011284547558008
143.0,21.177089367652865,0.46994346093350736,0.011768134719631009,10.825935588240693,0.6011380835484299
144.0,21.180936759985578,0.47014711877264453,0.011764014923274673,10.82541347616644,0.6011476377342548
145.0,21.184784113114908,0.47035080764377474,0.011759895451236428,10.824891341442324,0.6011575732839695
146.0,21.188631426473485,0.47055452745960835,0.011755776303342009,10.824369184146267,0.6011673646585134
147.0,21.192478699493424,0.4707582781327539,0.01175165747941766,10.823847004356285,0.6011770940554683
148.0,21.19632593160633,0.4709620595757183,0.011747538979290104,10.823324802150498,0.6011867724648597
149.0,21.200173122243303,0.47116587170090685,0.011743420802786658,10.822802577607122,0.6011968916393177
150.0,21.204020270834924,0.4713697144206237,0.011739302949735289,10.822280330804471,0.6012069592000556
151.0,21.207867376811276,0.4715735876470723,0.011735185419964825,10.821758061820955,0.601216948415344
152.0,21.211714439601938,0.4717774912923543,0.011731068213304947,10.82123577073508,0.6012267453127214
153.0,21.21556145863598,0.4719814252684689,0.01172695132958624,10.820713457625457,0.6012363075714595
154.0,21.21940843334197,0.47218538948731864,0.011722834768640368,10.820191122570789,0.6012458604476928
155.0,21.223255363147956,0.472389383860701,0.011718718530300107,10.819668765649874,0.6012555805582881
156.0,21.22710224748149,0.472593408300317,0.0117146026143994,10.819146386941615,0.6012657523724542
157.0,21.230949085769616,0.4727974627177632,0.011710487020773498,10.818623986525006,0.601276032210115
158.0,21.234795877438877,0.4730015470245384,0.01170637174925895,10.818101564479143,0.6012861326061499
159.0,21.238642621915304,0.47320566113204077,0.011702256799693769,10.817579120883217,0.6012960190006168
160.0,21.242489318624425,0.47340980495156765,0.011698142171917435,10.817056655816515,0.6013060081568787
161.0,21.246335966991253,0.4736139783943174,0.011694027865771003,10.816534169358427,0.6013158193332976
162.0,21.250182566440312,0.4738181813713902,0.011689913881097176,10.816011661588433,0.6013258201842316
163.0,21.254029116395618,0.4740224137937858,0.011685800217740336,10.815489132586116,0.6013367338081209
164.0,21.25787561628067,0.4742266755724007,0.011681686875546608,10.814966582431154,0.6013476164899078
165.0,21.26172206551847,0.4744309666180369,0.011677573854363969,10.814444011203323,0.6013578316938372
166.0,21.265568463531523,0.4746352868413975,0.011673461154042249,10.813921418982494,0.6013670203590903
167.0,21.269414809741818,0.47483963615308106,0.01166934877443322,10.813398805848637,0.6013777715711737
168.0,21.273261103570846,0.4750440144635934,0.011665236715390626,10.812876171881818,0.6013883737990414
169.0,21.27710734443959,0.47524842168334036,0.011661124976770236,10.812353517162204,0.6013989129011778
170.0,21.28095353176853,0.475452857722626,0.011657013558429909,10.811830841770053,0.6014094606308221
171.0,21.284799664977655,0.4756573224916592,0.011652902460229589,10.811308145785723,0.6014200805476557
172.0,21.28864574348643,0.4758618159005483,0.011648791682031343,10.81078542928967,0.601430928257854
173.0,21.29249176671383,0.47606633785930624,0.011644681223699457,10.810262692362443,0.6014423386459546
174.0,21.296337734078328,0.4762708882778461,0.011640571085100368,10.809739935084693,0.6014529696424749
175.0,21.300183644997887,0.476475467065985,0.011636461266102783,10.809217157537162,0.6014618512856705
176.0,21.304029498889967,0.47668007413343894,0.011632351766577578,10.808694359800693,0.6014710424240247
177.0,21.307875295171538,0.4768847093898301,0.011628242586397941,10.808171541956225,0.6014813758251082
178.0,21.311721033259055,0.47708937274467983,0.01162413372543928,10.807648704084793,0.6014911012101246
179.0,21.31556671256847,0.4772940641074157,0.01162002518357929,10.807125846267526,0.6015005419967762
180.0,21.319412332515245,0.47749878338736895,0.011615916960697905,10.806602968585654,0.6015105401665418
181.0,21.323257892514334,0.4777035304937673,0.01161180905667736,10.8060800711205,0.6015204082580882
182.0,21.327103391980188,0.47790830533574985,0.011607701471402105,10.805557153953487,0.6015301706537369
183.0,21.330948830326758,0.4781131078223519,0.011603594204758835,10.805034217166128,0.6015406543822782
184.0,21.334794206967494,0.4783179378625199,0.01159948725663652,10.804511260840039,0.6015518181689073
185.0,21.338639521315343,0.478522795365097,0.011595380626926277,10.80398828505693,0.6015627366829708
186.0,21.342484772782765,0.4787276802388358,0.011591274315521444,10.803465289898604,0.6015732429020243
187.0,21.346329960781695,0.47893259239238684,0.011587168322317518,10.802942275446965,0.6015834696991017
188.0,21.350175084723592,0.4791375317343114,0.011583062647212124,10.80241924178401,0.6015935199446851
189.0,21.354020144019398,0.4793424981730711,0.011578957290104984,10.801896188991835,0.6016036123197955
190.0,21.35786513807956,0.4795474916170346,0.011574852250897912,10.801373117152625,0.6016138650397914
191.0,21.36171006631404,0.47975251197447233,0.011570747529494708,10.800850026348671,0.6016241624711615
192.0,21.36555492813228,0.47995755915356203,0.01156664312580121,10.800326916662353,0.6016341647294611
193.0,21.36939972294322,0.4801626330623853,0.011562539039725152,10.799803788176147,0.6016435796593275
