k,PSNR,SSIM,mse,Log-Gradient,Angle
0.0,20.62752615396559,0.4412252659800897,0.0,10.900231517168379,0.5944121105719559
1.0,20.63068010909104,0.44138329141847904,0.009903448982122821,10.899802835816622,0.5997098885746592
2.0,20.634483774272216,0.44157874164247657,0.01214080826634568,10.899290194350947,0.5997188133581555
3.0,20.638326573317404,0.44177685060427224,0.012317035577790788,10.898772605462861,0.5997291408180252
4.0,20.642173617651906,0.4419753003811169,0.01233733572509089,10.898254451712829,0.5997464626192565
5.0,20.646021572666598,0.4421738547659147,0.012338833283515285,10.897736151673401,0.5997593885398186
6.0,20.649869908545632,0.44237247427052867,0.012336803898338354,10.8972177726708,0.5997661962654146
7.0,20.6537184992772,0.4425711492080402,0.012333815436581602,10.896699330942786,0.5997783684467589
8.0,20.65756730447227,0.4427698764458732,0.01233048079534005,10.896180831526602,0.5997847230747869
9.0,20.661416310691735,0.44296865483705883,0.012327010103308618,10.8956622764201,0.5997914065485861
10.0,20.665265510750338,0.4431674837370411,0.012323465163264798,10.895143666669695,0.5997992387042359
11.0,20.669114899758554,0.44336636269135415,0.012319865732704665,10.894625003045515,0.5998067957537945
12.0,20.672964475699935,0.4435652914959569,0.012316239105740865,10.894106286033255,0.599814821133569
13.0,20.676814237218082,0.443764270012123,0.012312597743151701,10.893587515862182,0.5998225019429775
14.0,20.68066418334835,0.4439632981257285,0.012308945614784393,10.893068692703634,0.5998298504268561
15.0,20.68451431313075,0.44416237572744127,0.012305286165007355,10.892549816702587,0.5998400590535653
16.0,20.688364625913778,0.44436150273427466,0.01230162334345781,10.892030887974382,0.5998508329338074
17.0,20.692215120984198,0.44456067906130986,0.012297953913558845,10.891511906657811,0.5998610172718057
18.0,20.69606579776462,0.444759904631848,0.012294282315522966,10.89099287282931,0.5998709290846042
19.0,20.699916655763666,0.4449591793770456,0.012290609214444134,10.890473786570805,0.5998807497033486
20.0,20.703767694496257,0.445158503226665,0.012286935363537616,10.889954647952168,0.5998905402032598
21.0,20.70761891344555,0.44535787610499966,0.012283260607562508,10.889435457037726,0.5999002849630984
22.0,20.711470312118422,0.4455572979405642,0.01227958534596613,10.888916213895476,0.5999099910273351
23.0,20.715321890052792,0.44575676866597025,0.012275909920918171,10.88839691858836,0.599919890526155
24.0,20.719173646783958,0.44595628821338384,0.012272234328749333,10.887877571177489,0.5999300022917468
25.0,20.723025581816444,0.44615585651045003,0.01226855801444519,10.887358171716977,0.5999401060208772
26.0,20.726877694681384,0.4463554734889102,0.012264881329783579,10.886838720268894,0.5999501602536736
27.0,20.73072998490671,0.4465551390801259,0.012261204160331069,10.886319216895638,0.5999601178140589
28.0,20.73458245203055,0.4467548532163905,0.012257526945841557,10.885799661655897,0.5999700603268343
29.0,20.73843509558651,0.44695461582935686,0.012253849596797652,10.885280054607662,0.5999799669136293
30.0,20.742287915092316,0.4471544268485344,0.012250171720801294,10.884760395807309,0.5999897911738681
31.0,20.74614091008521,0.4473542862059308,0.012246493823410498,10.884240685312665,0.5999995420771377
32.0,20.7499940801019,0.4475541938334324,0.012242815913153302,10.883720923181416,0.6000094382659015
33.0,20.75384742467087,0.44775414966196186,0.012239137918743542,10.883201109470985,0.6000193200877079
34.0,20.75770094330117,0.4479541536202365,0.012235459647414265,10.882681244238292,0.6000292421656631
35.0,20.761554635522646,0.44815420563939723,0.012231781159341664,10.882161327538318,0.6000391707152544
36.0,20.765408500868496,0.4483543056507522,0.01222810260043939,10.881641359427585,0.6000492186189561
37.0,20.76926253887313,0.4485544535856278,0.012224424042398558,10.881121339963379,0.6000591784145887
38.0,20.773116749070354,0.44875464937522064,0.012220745488410102,10.880601269203009,0.600069178708503
39.0,20.776971130993395,0.4489548929506079,0.012217066941176488,10.8800811472038,0.6000792105645293
40.0,20.780825684174843,0.4491551842427377,0.012213388402991432,10.879560974023118,0.6000892296945866
41.0,20.784680408146713,0.4493555231824316,0.012209709875804924,10.879040749718376,0.600099265228437
42.0,20.788535302440366,0.44955590970038295,0.012206031361276402,10.87852047434704,0.6001092774961078
43.0,20.792390366586574,0.44975634372716167,0.012202352860818933,10.878000147966636,0.6001192598655634
44.0,20.796245600115473,0.4499568251932083,0.012198674375635477,10.877479770634755,0.6001292352673472
45.0,20.800101002556577,0.4501573540288332,0.012194995906749414,10.87695934240906,0.6001392248584937
46.0,20.803956573438775,0.4503579301642255,0.012191317455029816,10.87643886334729,0.6001492340507032
47.0,20.807812312290327,0.4505585535294385,0.012187639021212926,10.875918333507261,0.6001591653972849
48.0,20.81166821863887,0.45075922405440333,0.012183960605920127,10.875397752946872,0.600169186942442
49.0,20.815524292011403,0.4509599416689203,0.012180282209673208,10.874877121724104,0.6001792000212599
50.0,20.81938053193429,0.45116070630266253,0.012176603832907525,10.874356439897028,0.6001893955715584
51.0,20.823236937933267,0.45136151788517104,0.012172925475982923,10.873835707523803,0.6001995708714288
52.0,20.827093509533434,0.45156237634586605,0.012169247139193344,10.873314924662676,0.6002097233890177
53.0,20.83095024625925,0.45176328161403,0.012165568822774945,10.872794091371992,0.6002199469235547
54.0,20.83480714763455,0.4519642336188261,0.01216189052691328,10.872273207710183,0.6002301475691484
55.0,20.83866421318252,0.4521652322892822,0.012158212251749241,10.871752273735783,0.6002403492606881
56.0,20.842521442425713,0.45236627755430003,0.01215453399738445,10.871231289507417,0.6002504820163843
57.0,20.846378834886043,0.4525673693426519,0.01215085576388581,10.870710255083809,0.6002604468007882
58.0,20.85023639008479,0.4527685075829835,0.012147177551289558,10.87018917052378,0.6002702299410151
59.0,20.854094107542572,0.45296969220380845,0.012143499359604766,10.869668035886253,0.6002797681178337
60.0,20.857951986779398,0.45317092313351376,0.012139821188816353,10.869146851230246,0.6002892254956449
61.0,20.861810027313172,0.4533722003002045,0.012136142964799942,10.868625616614818,0.6002985796251615
62.0,20.865668228660997,0.45357352363184095,0.012132464676670342,10.868104332099097,0.6003079358096618
63.0,20.869526590341092,0.4537748930564333,0.012128786411768129,10.86758299774239,0.6003173179809191
64.0,20.87338511187101,0.453976308501864,0.012125108170097506,10.867061613604108,0.600326861476657
65.0,20.877243792767676,0.45417776989588843,0.012121429951641663,10.866540179743756,0.600336906519012
66.0,20.881102632547353,0.45437927716613397,0.012117751756364892,10.866018696220953,0.6003475115749832
67.0,20.884961630725677,0.4545808302400958,0.01211407358421443,10.865497163095414,0.6003580378808886
68.0,20.888820786817625,0.45478242904514343,0.01211039543512193,10.864975580426963,0.6003687977382607
69.0,20.892680100337536,0.4549840735085131,0.012106717309004955,10.864453948275527,0.6003797591116365
70.0,20.896539570799092,0.4551857635573196,0.012103039205767975,10.863932266701134,0.6003908171655095
71.0,20.900399197715345,0.4553874991185429,0.012099361125303547,10.863410535763924,0.6004017555975804
72.0,20.904258980598676,0.45558928011903427,0.012095683067493004,10.862888755524136,0.6004122518686504
73.0,20.90811891896083,0.45579110648552107,0.012092005032207438,10.862366926042121,0.6004212371848757
74.0,20.911979012312912,0.45599297814459766,0.012088327019308275,10.86184504737833,0.600431872957767
75.0,20.91583926016536,0.45619489502272875,0.01208464902864786,10.861323119593322,0.6004431800844717
76.0,20.919699662027973,0.4563968570462569,0.012080971060070085,10.860801142747766,0.6004545674808839
77.0,20.923560217409907,0.4565988641413887,0.012077293113410804,10.860279116902433,0.6004660525039579
78.0,20.92742092581966,0.456800916234204,0.012073615188498314,10.859757042118204,0.6004774722541218
79.0,20.93128178676507,0.45700301325065884,0.012069937285153678,10.859234918456066,0.60048858207542
80.0,20.935142799753347,0.4572051551165763,0.012066259403191202,10.858712745977112,0.6004993649651094
81.0,20.939003964291032,0.45740734175764847,0.012062581542418587,10.858190524742545,0.600509849986487
82.0,20.94286527988402,0.4576095730994442,0.01205890370263737,10.857668254813673,0.6005204553843254
83.0,20.946726746037562,0.4578118490674011,0.012055225883643127,10.857145936251914,0.600531431425723
84.0,20.95058836225625,0.4580141695868305,0.012051548085225648,10.856623569118796,0.600542434261988
85.0,20.954450128044023,0.4582165345829119,0.012047870307169275,10.856101153475947,0.60055333125626
86.0,20.958312042904176,0.45841894398069966,0.012044192549253081,10.855578689385114,0.6005640834228126
87.0,20.962174106339333,0.45862139770511856,0.012040514811250994,10.855056176908146,0.6005747824360911
88.0,20.966036317851486,0.458823895680963,0.01203683709293205,10.854533616107002,0.6005852541991958
89.0,20.969898676941973,0.4590264378329034,0.012033159394060482,10.854011007043749,0.6005958760580086
90.0,20.973761183111463,0.4592290240854782,0.012029481714395945,10.853488349780564,0.6006064646394161
91.0,20.977623835859983,0.45943165436309946,0.012025804053693624,10.852965644379735,0.6006171397928625
92.0,20.981486634686913,0.459634328590052,0.012022126411704363,10.852442890903655,0.6006277210105856
93.0,20.98534957909095,0.45983704669049064,0.012018448788174815,10.85192008941483,0.6006381411793327
94.0,20.989212668570183,0.46003980858844135,0.012014771182847543,10.851397239975876,0.6006484847920815
95.0,20.993075902621996,0.4602426142078066,0.012011093595461146,10.850874342649513,0.6006587251056352
96.0,20.996939280743163,0.4604454634723531,0.012007416025750369,10.85035139749858,0.6006685438023153
97.0,21.000802802429774,0.4606483563057306,0.012003738473446147,10.849828404586015,0.600677880891946
98.0,21.004666467177273,0.4608512926314498,0.012000060938275894,10.849305363974876,0.6006881143051895
99.0,21.00853027448045,0.4610542723729019,0.01199638341996331,10.848782275728325,0.6006980005150322
100.0,21.012394223833446,0.4612572954533456,0.011992705918228725,10.848259139909638,0.6007075452850079
101.0,21.01625831472974,0.4614603617959143,0.0119890284327891,10.8477359565822,0.6007170474276409
102.0,21.02012254666214,0.46166347132361246,0.011985350963358048,10.847212725809504,0.6007264692051103
103.0,21.023986919122827,0.4618666239593166,0.011981673509645968,10.846689447655157,0.6007358911864985
104.0,21.027851431603317,0.4620698196257777,0.011977996071360264,10.846166122182876,0.6007449806476158
105.0,21.031716083594443,0.46227305824561754,0.011974318648205143,10.84564274945649,0.6007541932589143
106.0,21.035580874586426,0.46247633974133234,0.011970641239881941,10.845119329539935,0.6007646905803027
107.0,21.039445804068798,0.46267966403528765,0.011966963846089081,10.844595862497265,0.6007738609217584
108.0,21.04331087153044,0.46288303104972445,0.011963286466522158,10.844072348392638,0.6007836713721569
109.0,21.04717607645959,0.46308644070675603,0.011959609100874116,10.843548787290327,0.6007937954376649
110.0,21.05104141834381,0.4632898929283678,0.01195593174883515,10.843025179254719,0.6008036494207885
111.0,21.05490689667002,0.4634933876364194,0.01195225441009287,10.842501524350306,0.6008133094971748
112.0,21.05877251092447,0.4636969247526406,0.01194857708433247,10.841977822641697,0.600822792543417
113.0,21.062638260592763,0.46390050419863754,0.011944899771236606,10.841454074193612,0.6008323584718199
114.0,21.06650414515984,0.46410412589588906,0.01194122247048561,10.84093027907088,0.6008419665033241
115.0,21.07037016410998,0.46430778976574266,0.01193754518175754,10.840406437338448,0.6008516171908261
116.0,21.074236316926807,0.46451149572942513,0.011933867904728212,10.839882549061366,0.6008615994479165
117.0,21.0781026030933,0.4647152437080336,0.01193019063907134,10.839358614304807,0.6008717712632381
118.0,21.081969022091755,0.4649190336225379,0.011926513384458525,10.838834633134045,0.6008819988935096
119.0,21.085835573403816,0.46512286539378106,0.01192283614055944,10.838310605614478,0.6008920661026868
120.0,21.089702256510492,0.4653267389424827,0.01191915890704181,10.837786531811606,0.6009028499866408
121.0,21.093569070892105,0.4655306541892332,0.011915481683571528,10.837262411791048,0.6009132958942854
122.0,21.09743601602833,0.46573461105449604,0.011911804469812775,10.836738245618536,0.6009238924430373
123.0,21.101303091398176,0.4659386094586114,0.011908127265428088,10.836214033359909,0.6009354636220833
124.0,21.105170296480004,0.4661426493217884,0.011904450070078364,10.835689775081123,0.6009474690524891
125.0,21.10903763075151,0.46634673056411796,0.011900772883423056,10.835165470848251,0.6009595870687473
126.0,21.112905093689726,0.4665508531055537,0.011897095705120233,10.834641120727468,0.6009711918931607
127.0,21.116772684771036,0.4667550168659325,0.011893418534826604,10.834116724785074,0.600982511839648
128.0,21.12064040347115,0.46695922176496385,0.011889741372197747,10.833592283087476,0.6009935790898792
129.0,21.124508249265126,0.4671634677222263,0.011886064216888101,10.833067795701194,0.6010042039255276
130.0,21.128376221627363,0.4673677546571777,0.011882387068551086,10.83254326269286,0.6010145807040602
131.0,21.132244320031596,0.4675720824891471,0.011878709926839206,10.832018684129226,0.6010247003143421
132.0,21.1361125439509,0.4677764511373402,0.011875032791404222,10.831494060077151,0.6010346612810294
133.0,21.139980892857693,0.4679808605208349,0.011871355661897162,10.830969390603611,0.6010446925699341
134.0,21.14384936622374,0.46818531055858537,0.011867678537968522,10.830444675775695,0.601054790038816
135.0,21.147717963520126,0.4683898011694209,0.011864001419268267,10.829919915660604,0.6010651427205037
136.0,21.15158668421737,0.4685943322720794,0.011860324291849663,10.829395110324901,0.6010753088748622
137.0,21.15545552778559,0.46879890378526284,0.011856647123370707,10.828870259833515,0.6010851305311617
138.0,21.15932449369392,0.4690035156274255,0.011852969959109939,10.828345364254032,0.6010946258768212
139.0,21.16319358141084,0.46920816771689783,0.011849292798788139,10.827820423654154,0.6011037917828013
140.0,21.167062790404195,0.4694128599718823,0.011845615642124758,10.827295438101698,0.6011133020215681
141.0,21.17093212014112,0.4696175923104573,0.011841938488838253,10.826770407664597,0.6011227842879483
142.0,21.174801570088135,0.46982236465057636,0.011838261338646395,10.826245332410895,0.6011323415691306
143.0,21.178671139711067,0.47002717691006973,0.01183458419126653,10.825720212408754,0.6011420072993169
144.0,21.182540828475098,0.4702320290066398,0.011830907046415784,10.825195047726451,0.6011518047838568
145.0,21.186410635844734,0.4704369208578654,0.011827229903811163,10.82466983843238,0.6011617497574874
146.0,21.190280561283828,0.4706418523812024,0.011823552763169707,10.824144584595047,0.6011715883371932
147.0,21.19415060425558,0.47084682349398266,0.01181987562420858,10.823619286283074,0.6011813716037254
148.0,21.198020764222502,0.4710518341134078,0.01181619848664524,10.8230939435652,0.6011912128275281
149.0,21.201891040646466,0.4712568841565634,0.011812521350197431,10.822568556510276,0.6012015379643475
150.0,21.205761432988663,0.47146197354040137,0.011808844214583407,10.822043125187275,0.6012116301190322
151.0,21.209631940709635,0.4716671021817594,0.011805167079521926,10.821517649665276,0.6012216043285515
152.0,21.213502563269255,0.47187226999734283,0.011801489944732312,10.820992130013481,0.6012313614534878
153.0,21.21737330012673,0.4720774769037379,0.01179781280993465,10.820466566301205,0.6012409156487445
154.0,21.221244150740603,0.47228272281740385,0.011794135674849791,10.819940958597877,0.6012506017142648
155.0,21.225115114568773,0.4724880076546791,0.011790458539199387,10.819415306973045,0.6012607054960663
156.0,21.22898619106843,0.4726933313317745,0.011786781402706129,10.81888961149637,0.6012709402885859
157.0,21.23285737969615,0.47289869376478005,0.011783104265093665,10.81836387223763,0.6012812942026694
158.0,21.236728679907806,0.4731040948696592,0.011779427126086756,10.817838089266713,0.6012912960631555
159.0,21.240600091158637,0.47330953456225794,0.011775749985411341,10.817312262653632,0.6013013354824744
160.0,21.244471612903194,0.4735150127582908,0.011772072842794584,10.816786392468508,0.601311290712969
161.0,21.248343244595375,0.4737205293733549,0.011768395697964994,10.816260478781583,0.6013211970923491
162.0,21.252214985688408,0.47392608432292,0.011764718550652425,10.81573452166321,0.6013318243610285
163.0,21.256086835634854,0.4741316775223356,0.011761041400588245,10.815208521183862,0.6013428238592123
164.0,21.259958793886625,0.4743373088868266,0.011757364247505257,10.814682477414124,0.6013537085378984
165.0,21.26383085989495,0.47454297833149606,0.011753687091137896,10.8141563904247,0.6013620395457773
166.0,21.26770303311039,0.4747486857713237,0.011750009931222188,10.813630260286404,0.6013733484805374
167.0,21.271575312982854,0.47495443112116337,0.0117463327674959,10.813104087070174,0.601384000829748
168.0,21.275447698961578,0.4751602142957502,0.01174265559969849,10.81257787084706,0.6013946073269358
169.0,21.279320190495135,0.4753660352096965,0.011738978427571187,10.812051611688222,0.6014052379432829
170.0,21.28319278703142,0.47557189377748926,0.011735301250857082,10.811525309664948,0.6014159684707464
171.0,21.28706548801769,0.4757777899134938,0.0117316240693011,10.810998964848629,0.6014266827002533
172.0,21.290938292900506,0.47598372353195556,0.011727946882650069,10.81047257731078,0.6014380347109132
173.0,21.294811201125764,0.47618969454699495,0.011724269690652742,10.80994614712303,0.6014491785772013
174.0,21.298684212138717,0.4763957028726089,0.011720592493059834,10.809419674357121,0.6014586486176797
175.0,21.302557325383944,0.476601748422677,0.011716915289624022,10.808893159084917,0.6014676194480861
176.0,21.30643054030532,0.47680783111095465,0.01171323808009995,10.80836660137839,0.601477801868588
177.0,21.310303856346117,0.4770139508510735,0.011709560864244347,10.807840001309634,0.6014877986727483
178.0,21.31417727294888,0.4772201075565447,0.011705883641815856,10.807313358950855,0.601497262650207
179.0,21.31805078955552,0.47742630114075807,0.011702206412575172,10.80678667437438,0.6015071824356664
180.0,21.321924405607277,0.47763253151697954,0.011698529176285024,10.806259947652642,0.6015172003475121
181.0,21.325798120544718,0.4778387985983597,0.011694851932710151,10.805733178858201,0.6015269212291975
182.0,21.329671933807735,0.47804510229792113,0.01169117468161723,10.805206368063727,0.6015372622648966
183.0,21.333545844835562,0.47825144252856694,0.011687497422775027,10.804679515342006,0.601548552584962
184.0,21.337419853066773,0.4784578192030818,0.011683820155954207,10.80415262076594,0.601559601810908
185.0,21.341293957939254,0.4786642322341243,0.011680142880927433,10.803625684408551,0.6015703124157064
186.0,21.345168158890235,0.47887068153423745,0.011676465597469272,10.803098706342972,0.6015806802436444
187.0,21.349042455356276,0.47907716701583997,0.01167278830535622,10.802571686642452,0.6015908458787137
188.0,21.352916846773265,0.4792836885912317,0.011669111004366607,10.802044625380358,0.6016010043587154
189.0,21.356791332576424,0.47949024617258784,0.011665433694280688,10.801517522630173,0.6016112331698779
190.0,21.36066591220031,0.4796968396719703,0.011661756374880384,10.800990378465496,0.6016216529087439
191.0,21.3645405850788,0.4799034690013124,0.011658079045949536,10.80046319296004,0.6016317879458754
192.0,21.368415350645115,0.48011013407243364,0.011654401707273656,10.799935966187634,0.6016414168900749
193.0,21.3722902083318,0.4803168347970286,0.011650724358639867,10.799408698222226,0.601650468132115
