k,PSNR,SSIM,mse,Log-Gradient,Angle
0.0,20.62752615396559,0.4412252659800897,0.0,10.900231517168379,0.5944121105719559
1.0,20.630680142287986,0.441383293081903,0.0099035532081091,10.899802831304298,0.599709888677486
2.0,20.634483880713578,0.44157874702797684,0.012141038646788015,10.899290179927725,0.5997188137324441
3.0,20.638326793478285,0.44177686180020337,0.012317394906253224,10.89877257567494,0.5997291411876221
4.0,20.642173992065032,0.44197531948094143,0.012337824625355695,10.89825440109773,0.5997464633283967
5.0,20.64602214188751,0.4421738838657438,0.012339451850028103,10.897736074764369,0.5997593902042156
6.0,20.649870713147177,0.4423725154687,0.012337552105822904,10.897217663997495,0.5997661970772944
7.0,20.653719579848197,0.44257120460501875,0.012334693228541093,10.89669918503147,0.5997783713049175
8.0,20.657568701617098,0.4427699481442186,0.012331488105278397,10.896180642900186,0.5997847275646233
9.0,20.661418065030137,0.4429687449414074,0.012328146859774083,10.89566203959818,0.5997914115277826
10.0,20.66526766291735,0.4431675943540943,0.012324731293222207,10.895143376168553,0.5997992448908952
11.0,20.669117490404428,0.44336649592987504,0.012321261162302134,10.894624653378141,0.5998068030539341
12.0,20.67296754549006,0.4435654494667623,0.012317763760006638,10.894105871709346,0.5998148294543791
13.0,20.67681782683301,0.44376445482807664,0.012314251546639558,10.893587031388154,0.5998225121323438
14.0,20.680668333483688,0.443963511901742,0.012310728491958071,10.893068132582625,0.5998298604998007
15.0,20.684519064497206,0.44416262058046535,0.012307198040015647,10.892549175434453,0.5998400697644622
16.0,20.68837001923706,0.44436178078329774,0.012303664140317859,10.892030160055711,0.5998508460756254
17.0,20.692221197005022,0.44456099242735436,0.012300123556219919,10.891511086581914,0.5998610324248345
18.0,20.696072597238686,0.44476025543796177,0.012296580727756969,10.890991955086239,0.5998709461173001
19.0,20.69992421946159,0.4449595697483075,0.012293036319974993,10.89047276564734,0.5998807690276419
20.0,20.703776063203595,0.4451589352901677,0.012289491085934582,10.889953518331831,0.5998905614355364
21.0,20.707628127962728,0.44535835198985585,0.01228594487044338,10.88943421320078,0.5999003084993594
22.0,20.711480413260716,0.4455578197778991,0.012282398072854804,10.888914850318924,0.5999100165553141
23.0,20.71533291865032,0.44575733858891947,0.012278851035285025,10.888395429745952,0.5999199182553073
24.0,20.71918564368163,0.4459569083570886,0.012275303754052192,10.887875951539725,0.5999300327799716
25.0,20.723038587873944,0.44615652901204905,0.012271755674178013,10.887356415751105,0.599940139353636
26.0,20.72689175077313,0.4463562004875426,0.012268207147449117,10.886836822438914,0.5999501960059221
27.0,20.73074513192184,0.44655592271692335,0.012264658059235687,10.886317171662308,0.5999601562369467
28.0,20.73459873087289,0.4467556956344742,0.012261108849310113,10.885797463476731,0.5999701017617625
29.0,20.738452547174518,0.4469555191738312,0.012257559428199564,10.885277697936933,0.5999800112108581
30.0,20.742306580359106,0.4471553932664864,0.012254009403432898,10.884757875096057,0.5999898381009495
31.0,20.746160829978475,0.44735531784642046,0.012250459280514058,10.884237995008693,0.5999995921946786
32.0,20.7500152955839,0.44755529284749623,0.012246909067943729,10.883718057729295,0.6000094921915521
33.0,20.753869976718406,0.4477553182026057,0.012243358694457276,10.883198063312054,0.6000193778577539
34.0,20.757724872905552,0.4479553938424308,0.012239807967231836,10.882678011810668,0.6000293029920301
35.0,20.761579983689664,0.44815551970006945,0.012236256946458007,10.882157903276891,0.6000392365866907
36.0,20.76543530861839,0.44835569570878775,0.012232705777973352,10.881637737764018,0.6000492878053034
37.0,20.76929084724055,0.44855592180186504,0.012229154533429841,10.881117515326123,0.6000592510464088
38.0,20.77314659910435,0.4487561979124453,0.012225603215991167,10.880597236017293,0.6000692549149634
39.0,20.77700256375737,0.44895652397354885,0.012222051828332539,10.880076899891641,0.6000792903345747
40.0,20.78085874074654,0.44915689991806323,0.01221850037272037,10.87955650700332,0.6000893138971536
41.0,20.784715129618164,0.44935732567874603,0.012214948851077309,10.879036057406537,0.6000993538441821
42.0,20.788571729917884,0.4495578011882222,0.012211397265035435,10.878515551155548,0.600109370868251
43.0,20.7924285411907,0.44975832637898705,0.012207845615980342,10.877994988304675,0.6001193566906976
44.0,20.796285562980962,0.4499589011834022,0.012204293905087527,10.87747436890831,0.6001293375611995
45.0,20.800142794832368,0.4501595255337007,0.012200742133352795,10.876953693020917,0.6001393311842373
46.0,20.804000236287955,0.4503601993619804,0.012197190301617583,10.87643296069704,0.600149344955646
47.0,20.8078578868901,0.45056092260020614,0.012193638410590462,10.875912171991299,0.6001592821044383
48.0,20.811715746180525,0.450761695180216,0.01219008646086508,10.875391326958404,0.600169308640688
49.0,20.81557381370029,0.45096251703370854,0.012186534452935409,10.874870425653151,0.6001793285120264
50.0,20.819432088989778,0.4511633880922548,0.012182982387208866,10.874349468130424,0.6001895309632771
51.0,20.823290571588736,0.4513643082872901,0.012179430264017353,10.8738284544452,0.6001997099356526
52.0,20.827149261036215,0.4515652775501155,0.012175878083626746,10.873307384652547,0.6002098692040426
53.0,20.831008156870613,0.4517662958119057,0.012172325846245132,10.872786258807631,0.6002200994122594
54.0,20.834867258629668,0.45196736300369506,0.01216877355202983,10.872265076965714,0.6002303046554006
55.0,20.838726565850433,0.45216847905638885,0.012165221201093479,10.871743839182157,0.6002405133644616
56.0,20.8425860780693,0.4523696439007568,0.012161668793509342,10.871222545512417,0.6002506499497614
57.0,20.846445794822,0.4525708574674408,0.012158116329315892,10.870701196012053,0.6002606190377325
58.0,20.850305715643568,0.4527721196869425,0.012154563808520875,10.870179790736726,0.6002704026425206
59.0,20.854165840068397,0.45297343048963334,0.012151011231104729,10.869658329742194,0.6002799439197101
60.0,20.858026167630193,0.4531747898057547,0.012147458597023741,10.869136813084324,0.6002894065014136
61.0,20.861886697860548,0.45337619756525727,0.012143905832592108,10.868615240819018,0.6002987658685578
62.0,20.86574743029022,0.45357765369794345,0.01214035292603142,10.868093613002255,0.600308129053825
63.0,20.869608364451032,0.45377915813365993,0.012136799965049605,10.867571929690193,0.6003175172531611
64.0,20.87346949987412,0.45398071080212726,0.012133246949621895,10.867050190939096,0.6003270718383393
65.0,20.877330836089975,0.45418231163292644,0.012129693879702357,10.866528396805332,0.600337144826992
66.0,20.881192372628377,0.4543839605555077,0.012126140755226113,10.866006547345377,0.6003477598859489
67.0,20.885054109018448,0.4545856574991876,0.012122587576111073,10.865484642615812,0.6003582918002521
68.0,20.888916044788623,0.4547874023931495,0.012119034342259605,10.864962682673326,0.6003690679666237
69.0,20.892778179466667,0.4549891951664425,0.01211548105355975,10.864440667574717,0.6003800413370982
70.0,20.896640512579655,0.45519103574798464,0.01211192770988653,10.86391859737689,0.6003911081658372
71.0,20.900503043653977,0.4553929240665539,0.012108374311102798,10.863396472136854,0.6004020528385255
72.0,20.904365772215364,0.4555948600508024,0.01210482085706026,10.862874291911732,0.6004125253442558
73.0,20.90822869778885,0.4557968436292457,0.01210126734760017,10.862352056758755,0.6004214911476088
74.0,20.912091819898787,0.4559988747302662,0.012097713782554085,10.86182976673526,0.6004322014207409
75.0,20.915955138068853,0.45620095328210947,0.012094160161744394,10.861307421898697,0.6004435285108853
76.0,20.919818651822037,0.45640307921289597,0.012090606484984936,10.860785022306624,0.6004549246136923
77.0,20.92368236068065,0.4566052524506011,0.01208705275208144,10.860262568016706,0.6004664233482753
78.0,20.92754626416632,0.4568074729230756,0.012083498962831958,10.859740059086723,0.6004778427555963
79.0,20.931410361799983,0.4570097405580363,0.01207994511702727,10.859217495574564,0.6004889545489083
80.0,20.935274653101892,0.45721205528306225,0.012076391214451247,10.858694877538225,0.6004997322587678
81.0,20.939139137591635,0.4574144170256002,0.012072837254881147,10.858172205035817,0.6005102209669028
82.0,20.943003814788092,0.4576168257129684,0.012069283238087895,10.857649478125559,0.6005208507466846
83.0,20.946868684209463,0.4578192812723438,0.012065729163836388,10.857126696865782,0.600531845642304
84.0,20.95073374537327,0.4580217836307738,0.012062175031885733,10.856603861314932,0.6005428541226092
85.0,20.954598997796342,0.4582243327151767,0.012058620841989389,10.856080971531558,0.6005537558132993
86.0,20.95846444099483,0.4584269284523304,0.01205506659389551,10.855558027574329,0.6005645136171374
87.0,20.962330074484193,0.4586295707688839,0.012051512287346997,10.855035029502021,0.6005752162633103
88.0,20.966195897779198,0.45883225959134927,0.012047957922081791,10.854511977373523,0.6005856906477985
89.0,20.97006191039393,0.45903499484610927,0.012044403497832968,10.85398887124784,0.6005963376756488
90.0,20.973928111841786,0.45923777645941183,0.012040849014328862,10.853465711184082,0.6006069242946709
91.0,20.97779450163548,0.45944060435736905,0.012037294471293295,10.852942497241477,0.6006176214983538
92.0,20.98166107928702,0.45964347846596604,0.012033739868445675,10.852419229479363,0.6006282036163351
93.0,20.985527844307754,0.45984639871104704,0.012030185205501089,10.851895907957195,0.600638633628652
94.0,20.989394796208312,0.46004936501833066,0.01202663048217046,10.851372532734533,0.6006489760842145
95.0,20.99326193449865,0.46025237731339663,0.01202307569816069,10.85084910387106,0.6006592253222385
96.0,20.99712925868804,0.4604554355216939,0.012019520853174674,10.850325621426563,0.6006690219856613
97.0,21.00099676828505,0.460658539568537,0.012015965946911504,10.849802085460949,0.6006784091867186
98.0,21.00486446279756,0.46086168937911215,0.01201241097906655,10.849278496034234,0.6006886443577477
99.0,21.008732341732767,0.46106488487846525,0.012008855949331472,10.848754853206552,0.6006985218757706
100.0,21.012600404597173,0.461268125991515,0.0120053008573944,10.848231157038148,0.6007080749169713
101.0,21.016468650896595,0.46147141264304653,0.012001745702940027,10.84770740758938,0.6007175667908365
102.0,21.020337080136148,0.46167474475770737,0.011998190485649658,10.847183604920724,0.6007270125336269
103.0,21.024205691820256,0.46187812226001906,0.011994635205201281,10.846659749092767,0.6007364269455168
104.0,21.028074485452663,0.4620815450743639,0.011991079861269672,10.84613584016621,0.6007455051017397
105.0,21.031943460536404,0.46228501312499687,0.011987524453526535,10.845611878201872,0.6007547263514798
106.0,21.03581261657384,0.4624885263360375,0.01198396898164046,10.845087863260682,0.6007652615898206
107.0,21.03968195306663,0.462692084631472,0.011980413445277073,10.844563795403687,0.6007744343566362
108.0,21.04355146951573,0.4628956879351549,0.011976857844099107,10.844039674692048,0.6007843228419009
109.0,21.04742116542142,0.4630993361708086,0.011973302177766525,10.84351550118704,0.6007944429322413
110.0,21.051291040283274,0.4633030292620226,0.011969746445936425,10.842991274950059,0.6008042950101832
111.0,21.05516109360019,0.4635067671322548,0.011966190648263377,10.842466996042605,0.6008139605603519
112.0,21.059031324870343,0.46371054970482745,0.01196263478439923,10.841942664526302,0.6008234384753163
113.0,21.06290173359124,0.46391437690293397,0.01195907885399338,10.84141828046289,0.6008330290318031
114.0,21.066772319259677,0.46411824864963475,0.011955522856692704,10.840893843914218,0.6008426593228898
115.0,21.070643081371763,0.4643221648678548,0.011951966792141791,10.840369354942256,0.6008523175370086
116.0,21.074514019422914,0.4645261254803921,0.011948410659982867,10.83984481360909,0.6008623573560571
117.0,21.07838513290784,0.4647301304099072,0.011944854459855925,10.83932021997692,0.6008725383052687
118.0,21.082256421320572,0.4649341795789323,0.011941298191398862,10.838795574108062,0.6008827766751886
119.0,21.08612788415443,0.465138272909865,0.011937741854247433,10.838270876064948,0.6008929227260342
120.0,21.089999520902044,0.46534241032497037,0.011934185448035439,10.837746125910128,0.6009036933215405
121.0,21.09387133105534,0.46554659174638685,0.011930628972394755,10.837221323706268,0.6009141252430491
122.0,21.097743314105564,0.4657508170961148,0.01192707242695544,10.836696469516149,0.6009248432320823
123.0,21.101615469543262,0.465955086296024,0.011923515811345767,10.83617156340267,0.6009364257553352
124.0,21.105487796858252,0.4661593992678547,0.011919959125192394,10.835646605428847,0.600948488656743
125.0,21.10936029553971,0.46636375593321217,0.011916402368120376,10.835121595657814,0.6009606270917996
126.0,21.113232965076065,0.4665681562135737,0.0119128455397533,10.834596534152814,0.600972186655271
127.0,21.117105804955067,0.4667726000302816,0.011909288639713328,10.834071420977219,0.6009835260694462
128.0,21.12097881466378,0.466977087304548,0.011905731667621364,10.833546256194511,0.600994567241869
129.0,21.12485199368855,0.4671816179574531,0.011902174623097119,10.83302103986829,0.6010051659128669
130.0,21.128725341515032,0.46738619190994646,0.01189861750575919,10.832495772062273,0.6010155501660411
131.0,21.132598857628196,0.4675908090828436,0.011895060315225189,10.831970452840299,0.601025656649899
132.0,21.136472541512287,0.4677954693968334,0.011891503051111836,10.831445082266315,0.6010356289855736
133.0,21.14034639265087,0.4680001727724676,0.011887945713035121,10.830919660404396,0.6010456667294393
134.0,21.144220410526806,0.468204919130171,0.011884388300610333,10.830394187318728,0.6010558144992072
135.0,21.148094594622254,0.46840970839023477,0.011880830813452228,10.829868663073617,0.601066177967299
136.0,21.15196894441879,0.4686145404728678,0.011877273234231508,10.829343087732546,0.6010763331852584
137.0,21.155843459397477,0.468819415298215,0.01187371553729036,10.828817461357742,0.6010861404865054
138.0,21.159718139038418,0.4690243327861765,0.011870157764498563,10.828291784013905,0.601095619579404
139.0,21.163592982820994,0.4692292928565207,0.011866599915541252,10.827766055765856,0.6011047693816752
140.0,21.16746799022392,0.4694342954288888,0.011863041990102137,10.827240276678538,0.6011142953901133
141.0,21.17134316072516,0.4696393404227886,0.01185948398786387,10.826714446817007,0.6011237864212159
142.0,21.175218493802028,0.4698444277575938,0.011855925908508364,10.826188566246447,0.6011333780823196
143.0,21.1790939889311,0.47004955735255566,0.011852367751717035,10.825662635032153,0.6011430520243227
144.0,21.182969645588273,0.4702547291267842,0.011848809517170983,10.825136653239541,0.6011529138648092
145.0,21.18684546324873,0.47045994299926686,0.011845251204551068,10.824610620934152,0.6011628639595994
146.0,21.19072144138695,0.4706651988888577,0.011841692813538189,10.82408453818164,0.6011727124196287
147.0,21.194597579476714,0.4708704967142818,0.011838134343813244,10.823558405047784,0.6011825081756442
148.0,21.198473876991095,0.47107583639412853,0.011834575795057355,10.823032221598474,0.6011924710563524
149.0,21.202350333402478,0.47128121784686355,0.011831017166951861,10.822505987899731,0.6012027691609649
150.0,21.206226948182533,0.47148664099081955,0.011827458459178474,10.821979704017686,0.6012128730545113
151.0,21.210103720802213,0.47169210574419834,0.011823899671419422,10.821453370018595,0.601222841638966
152.0,21.2139806507318,0.4718976120250698,0.011820340803357325,10.820926985968832,0.6012325849388885
153.0,21.217857737440834,0.4721031597513794,0.01181678185467558,10.820400551934892,0.6012421670933988
154.0,21.22173498039819,0.47230874884093393,0.01181322282505816,10.819874067983386,0.6012518682472233
155.0,21.225612379072004,0.47251437921142186,0.011809663714189914,10.819347534181052,0.6012620657201647
156.0,21.22948993292972,0.47272005078038953,0.011806104521756473,10.818820950594743,0.6012723617460033
157.0,21.233367641438083,0.47292576346526277,0.011802545247444493,10.81829431729143,0.6012826806017019
158.0,21.237245504063125,0.47313151718332974,0.011798985890941575,10.81776763433821,0.6012926808729104
159.0,21.241123520270175,0.47333731185175626,0.011795426451936443,10.817240901802297,0.6013027514589162
160.0,21.245001689523853,0.47354314738757314,0.011791866930118985,10.81671411975102,0.601312699709211
161.0,21.248880011288076,0.4737490237076855,0.011788307325180328,10.816187288251841,0.6013226757805393
162.0,21.252758485026064,0.4739549407288635,0.011784747636812936,10.815660407372329,0.601333440653436
163.0,21.2566371102003,0.47416089836775877,0.011781187864710592,10.81513347718018,0.6013444436345329
164.0,21.26051588627259,0.47436689654087744,0.011777628008568535,10.814606497743208,0.6013553137007743
165.0,21.264394812704023,0.47457293516460886,0.011774068068083541,10.814079469129348,0.6013639255269448
166.0,21.268273888954976,0.47477901415521107,0.01177050804295386,10.813552391406656,0.6013749981015614
167.0,21.27215311448513,0.47498513342881016,0.01176694793287943,10.813025264643308,0.6013856577316582
168.0,21.27603248875344,0.47519129290140155,0.011763387737561819,10.8124980889076,0.6013962871348694
169.0,21.279912011218173,0.47539749248885904,0.011759827456704253,10.811970864267947,0.6014069404652918
170.0,21.28379168133687,0.47560373210691803,0.011756267090011773,10.811443590792885,0.6014176918460471
171.0,21.28767149856637,0.47581001167119535,0.011752706637191149,10.810916268551075,0.6014284494499246
172.0,21.29155146236281,0.4760163310971686,0.011749146097951005,10.810388897611292,0.6014399085514814
173.0,21.295431572181613,0.4762226903001953,0.011745585472001852,10.809861478042432,0.6014509065537134
174.0,21.29931182747748,0.476429089195499,0.011742024759055942,10.809334009913519,0.601460103808557
175.0,21.30319222770442,0.47663552769817613,0.011738463958827532,10.808806493293687,0.6014692150170552
176.0,21.307072772315728,0.4768420057231964,0.011734903071032783,10.808278928252198,0.6014795610627487
177.0,21.310953460763983,0.47704852318540086,0.011731342095389763,10.807751314858432,0.6014894748139554
178.0,21.31483429250106,0.47725507999949746,0.01172778103161841,10.80722365318189,0.6014989563600047
179.0,21.318715266978117,0.47746167608007495,0.011724219879440726,10.806695943292194,0.6015089921039113
180.0,21.322596383645603,0.47766831134158516,0.011720658638580562,10.806168185259084,0.601518980859288
181.0,21.326477641953257,0.4778749856983567,0.011717097308763719,10.805640379152425,0.6015287519057367
182.0,21.330359041350114,0.47808169906458825,0.011713535889717913,10.805112525042201,0.6015393110813791
183.0,21.334240581284483,0.4782884513543544,0.011709974381172775,10.804584622998513,0.6015506176364759
184.0,21.338122261203974,0.47849524248159686,0.011706412782859834,10.804056673091589,0.6015616561770901
185.0,21.342004080555476,0.4787020723601321,0.011702851094512513,10.803528675391775,0.6015723011653696
186.0,21.345886038785167,0.47890894090364905,0.011699289315866028,10.803000629969535,0.6015826347745915
187.0,21.349768135338522,0.4791158480257089,0.011695727446657481,10.802472536895458,0.601592773766827
188.0,21.35365036966029,0.4793227936397469,0.01169216548662575,10.801944396240252,0.6016029740660016
189.0,21.357532741194518,0.4795297776590686,0.011688603435511428,10.801416208074746,0.6016133057722832
190.0,21.361415249384535,0.4797367999968551,0.011685041293056895,10.80088797246989,0.6016237114265249
191.0,21.36529789367295,0.4799438605661577,0.011681479059006168,10.800359689496757,0.6016337871386427
192.0,21.369180673501674,0.48015095927989987,0.011677916733104955,10.799831359226534,0.6016432468246097
193.0,21.373063588311886,0.4803580960508822,0.011674354315100513,10.79930298173054,0.6016523084160524
