k,PSNR,SSIM,mse,Log-Gradient,Angle
0.0,20.62752615396559,0.4412252659800897,0.0,10.900231517168379,0.5944121105719559
1.0,20.6306798719903,0.4413832795379046,0.009902704574586536,10.899802868044747,0.5997098878402441
2.0,20.634483014062287,0.4415787031789236,0.012139162896349818,10.899290297362365,0.5997188106842858
3.0,20.638325000960016,0.44177677064451726,0.012314469370364775,10.898772818203891,0.59972913817802
4.0,20.642170943722107,0.4419751639766805,0.012333844303916609,10.898254813188371,0.5997464575533192
5.0,20.646017507601407,0.44217364695073713,0.012334416053228664,10.897736700915614,0.5997593766497827
6.0,20.64986416268337,0.44237218006390805,0.012331461118689832,10.897218548734019,0.5997661904854706
7.0,20.65371078286702,0.442570753615374,0.01232754759026401,10.896700372902275,0.5997783480324577
8.0,20.657557327677235,0.4427693644589219,0.01232328843640104,10.896182178478153,0.5997846910075454
9.0,20.661403783590117,0.44296801143405,0.012318893821121914,10.895663967479843,0.599791370987602
10.0,20.665250143336237,0.4431666938827388,0.01231442555843993,10.895145740973986,0.5997991945238533
11.0,20.66909640194254,0.4433654113371294,0.012309903411609438,10.894627499750865,0.5998067436224215
12.0,20.67294255730934,0.4435641635798224,0.01230535468266695,10.894109244316263,0.5998147617178609
13.0,20.676788607997363,0.44376295045876885,0.012300791835703997,10.893590974919489,0.5998224291707791
14.0,20.68063455295927,0.44396177184655894,0.012296218841133973,10.893072691751902,0.5998297785039046
15.0,20.68448039115271,0.4441606276206063,0.01229163914549896,10.892554394978452,0.5998399826122479
16.0,20.688326121843993,0.4443595176846992,0.012287056699300051,10.892036084734444,0.5998507390865057
17.0,20.692171744238003,0.4445584419407349,0.012282468266367436,10.891517761178585,0.5998609090701429
18.0,20.696017257675713,0.444757400298855,0.01227787828810401,10.890999424407214,0.599870807466064
19.0,20.699862661584277,0.4449563926770879,0.012273287429869413,10.890481074522128,0.5998806117257218
20.0,20.70370795539745,0.4451554189921008,0.012268696445906864,10.889962711613046,0.5998903886046683
21.0,20.707553138517405,0.4453544791551211,0.012264105180550737,10.889444335764122,0.5999001169159842
22.0,20.711398210370284,0.44555357308163385,0.012259514033841996,10.888925947063152,0.599909808760473
23.0,20.71524317041351,0.44575270069125067,0.012254923348255831,10.888407545592855,0.5999196925473763
24.0,20.7190880181021,0.44595186190316544,0.012250333120134096,10.887889131434097,0.5999297846154921
25.0,20.722932752860544,0.4461510566320844,0.0122457427941267,10.887370704660722,0.5999398690306964
26.0,20.726777374140163,0.4463502847968462,0.0122411527218712,10.886852265354507,0.5999499050551607
27.0,20.730621881389318,0.44654954631593485,0.012236562790259167,10.886333813597535,0.5999598438404823
28.0,20.734466274066815,0.44674884110880586,0.012231973438834375,10.88581534946815,0.5999697644959537
29.0,20.73831055162711,0.4469481690942952,0.01222738457768323,10.885296873043975,0.5999796506576031
30.0,20.74215471350911,0.44714753018913794,0.012222795814851478,10.884778384401,0.5999894563113302
31.0,20.7459987591714,0.44734692431259604,0.012218207656205578,10.884259883616645,0.5999991844093767
32.0,20.74984268807228,0.44754635138383997,0.01221362011039071,10.883741370768155,0.6000090546788509
33.0,20.753686499662066,0.44774581132110974,0.012209033105888346,10.88322284593249,0.6000189079622191
34.0,20.757530193371885,0.4479453040404788,0.012204446450252898,10.882704309186096,0.6000288080533601
35.0,20.761373768653915,0.44814482946046774,0.012199860203478666,10.882185760603441,0.6000387004429427
36.0,20.765217224963884,0.4483443874998012,0.012195274511944862,10.88166720026052,0.6000487246173895
37.0,20.769060561758998,0.448543978077256,0.012190689447543597,10.881148628234063,0.6000586597783659
38.0,20.772903778496087,0.44874360111151274,0.012186105013581658,10.880630044600796,0.6000686358817708
39.0,20.776746874631637,0.44894325652116135,0.01218152121287748,10.880111449437443,0.6000786410073312
40.0,20.78058984962176,0.44914294422469725,0.012176938047840891,10.879592842820742,0.6000886284775598
41.0,20.78443270292218,0.44934266414052404,0.01217235552053822,10.879074224827452,0.6000986329898571
42.0,20.788275433988282,0.4495424161869494,0.012167773632745585,10.878555595534356,0.6001086113028432
43.0,20.792118042275032,0.4497422002821923,0.012163192385992883,10.878036955018281,0.6001185686135856
44.0,20.79596052723705,0.4499420163443713,0.012158611781600414,10.877518303356092,0.6001285051980518
45.0,20.799802888328564,0.4501418642915167,0.012154031820709054,10.876999640624698,0.6001384664743413
46.0,20.8036451250034,0.450341744041562,0.012149452504305882,10.876480966901058,0.6001484421879507
47.0,20.807487236715026,0.45054165551234343,0.012144873833245463,10.875962282262188,0.6001583339026145
48.0,20.811329222916516,0.45074159862160973,0.012140295808267905,10.875443586785158,0.6001683190340135
49.0,20.815171083060548,0.45094157328701195,0.012135718430014241,10.874924880547097,0.6001782843714399
50.0,20.81901281659942,0.45114157942610666,0.012131141699039338,10.874406163625196,0.6001884294713898
51.0,20.822854422985046,0.45134161695635483,0.012126565615823082,10.87388743609671,0.6001985776776445
52.0,20.82669590166895,0.4515416857951264,0.012121990180779892,10.87336869803896,0.6002086816614337
53.0,20.830537252102253,0.4517417858596969,0.012117415394266884,10.872849949529328,0.6002188606690225
54.0,20.834378473735708,0.45194191706724474,0.012112841256590939,10.872331190645275,0.6002290253652898
55.0,20.838219566019667,0.4521420793348591,0.012108267768014833,10.871812421464318,0.6002391763842603
56.0,20.842060528404097,0.45234227257953036,0.01210369492876251,10.871293642064055,0.6002492814070821
57.0,20.84590136033857,0.4525424967181597,0.012099122739023666,10.87077485252215,0.6002592142872858
58.0,20.849742061272277,0.4527427516675509,0.012094551198957852,10.870256052916337,0.6002689963962748
59.0,20.853582630654003,0.4529430373444165,0.01208998030869787,10.86973724332443,0.6002785153015092
60.0,20.857423067932167,0.4531433536653739,0.01208541006835289,10.869218423824309,0.6002879334347583
61.0,20.861263372553278,0.45334370054678824,0.012080840400579836,10.868699594493863,0.6002972517411252
62.0,20.865103543963404,0.45354407790492707,0.012076271300803356,10.868180755411036,0.6003065581295634
63.0,20.868943581609937,0.45374448565614095,0.012071702853653948,10.867661906653916,0.6003158947231221
64.0,20.872783484939855,0.453944923716682,0.012067135059262216,10.867143048300669,0.6003253607579434
65.0,20.876623253399753,0.4541453920027174,0.01206256791773827,10.86662418042953,0.6003352076901308
66.0,20.88046288643583,0.45434589043031587,0.012058001429173789,10.866105303118822,0.6003457392167925
67.0,20.884302383493903,0.4545464189154565,0.012053435593643944,10.865586416446932,0.6003562278809099
68.0,20.888141744019386,0.45474697737402225,0.012048870411208858,10.865067520492333,0.6003668678523059
69.0,20.89198096745731,0.45494756572180545,0.012044305881915003,10.864548615333572,0.6003777421220159
70.0,20.895820053252322,0.4551481838745069,0.012039742005796415,10.86402970104927,0.6003887370198573
71.0,20.899659000848665,0.4553488317477321,0.012035178782875576,10.863510777718135,0.6003996433509989
72.0,20.903497809690204,0.4555495092569945,0.012030616213164378,10.862991845418943,0.6004102630877575
73.0,20.9073364792204,0.45575021631772095,0.012026054296664946,10.862472904230556,0.6004194456583415
74.0,20.911175008882342,0.45595095284523773,0.012021493033370263,10.861953954231906,0.6004295079570418
75.0,20.91501339811871,0.45615171875478344,0.012016932423264765,10.86143499550201,0.600440683944146
76.0,20.918851646371817,0.45635251396150833,0.012012372466325,10.860916028119965,0.6004520282641677
77.0,20.92268975308356,0.45655333838046147,0.012007813162519875,10.860397052164938,0.6004634148226268
78.0,20.926527717695475,0.456754191926611,0.012003254511811388,10.859878067716181,0.6004748170977124
79.0,20.93036553964869,0.456955074514827,0.01199869651415482,10.859359074853026,0.6004859120654363
80.0,20.93420321838396,0.45715598605989055,0.01199413916949913,10.85884007365488,0.6004967416348902
81.0,20.938040753341625,0.45735692647648807,0.011989582477787305,10.858321064201231,0.6005072076391168
82.0,20.941878143961667,0.4575578956792213,0.011985026438956577,10.857802046571647,0.6005176426975385
83.0,20.945715389683677,0.4577588935825973,0.01198047105293888,10.857283020845774,0.600528472644989
84.0,20.949552489946836,0.4579599201010303,0.011975916319660804,10.856763987103337,0.6005394330662555
85.0,20.95338944418996,0.4581609751488474,0.011971362239044037,10.856244945424141,0.6005502964859312
86.0,20.95722625185147,0.45836205864028484,0.0119668088110055,10.855725895888071,0.6005610182691007
87.0,20.961062912369407,0.4585631704894881,0.01196225603545754,10.85520683857509,0.600571672136725
88.0,20.964899425181407,0.45876431061050976,0.011957703912308113,10.854687773565242,0.6005821288211951
89.0,20.968735789724754,0.45896547891731526,0.011953152441460923,10.854168700938649,0.60059257830656
90.0,20.972572005436312,0.45916667532378136,0.011948601622815604,10.853649620775517,0.600603177148044
91.0,20.976408071752584,0.459367899743692,0.011944051456267856,10.853130533156124,0.6006136926967475
92.0,20.980243988109674,0.45956915209074123,0.011939501941709544,10.852611438160835,0.6006242602464386
93.0,20.984079753943313,0.4597704322785372,0.011934953079028922,10.852092335870092,0.6006346322023138
94.0,20.98791536868884,0.4599717402205937,0.011930404868110624,10.851573226364415,0.6006449575273793
95.0,20.991750831781214,0.46017307583034134,0.01192585730883589,10.851054109724407,0.6006551403093513
96.0,20.995586142655007,0.4603744390211166,0.011921310401082607,10.85053498603075,0.6006650964301944
97.0,20.999421300744416,0.4605758297061692,0.011916764144725407,10.850015855364203,0.6006744442831302
98.0,21.003256305483244,0.46077724779866086,0.011912218539635875,10.849496717805609,0.6006842898700993
99.0,21.007091156304924,0.4609786932116599,0.011907673585682479,10.848977573435889,0.6006942949768871
100.0,21.010925852642494,0.4611801658581555,0.011903129282730806,10.848458422336044,0.6007038804080159
101.0,21.014760393928633,0.461381665651039,0.011898585630643574,10.847939264587156,0.6007133226674787
102.0,21.01859477959561,0.46158319250311935,0.011894042629280717,10.847420100270385,0.6007225610483183
103.0,21.02242900907533,0.46178474632711525,0.011889500278499525,10.846900929466974,0.6007320466447938
104.0,21.02626308179932,0.46198632703565917,0.011884958578154666,10.846381752258242,0.6007412048850518
105.0,21.030096997198726,0.462187934541293,0.0118804175280983,10.845862568725593,0.6007502776776673
106.0,21.0339307547043,0.46238956875647474,0.011875877128180171,10.845343378950506,0.6007583264309052
107.0,21.03776435374643,0.4625912295935719,0.0118713373782476,10.844824183014545,0.6007697649416265
108.0,21.041597793755127,0.46279291696486874,0.01186679827814571,10.844304980999352,0.6007791620247003
109.0,21.045431074160014,0.4629946307825558,0.011862259827717336,10.843785772986646,0.6007891403026443
110.0,21.049264194390346,0.46319637095874516,0.011857722026803179,10.84326655905823,0.600799028803618
111.0,21.053097153874987,0.4633981374054558,0.011853184875241961,10.842747339295988,0.6008086667551041
112.0,21.05692995204243,0.46359993003462424,0.011848648372870326,10.84222811378188,0.6008181666521388
113.0,21.06076258832081,0.46380174875809616,0.011844112519523001,10.84170888259795,0.6008275426168284
114.0,21.06459506213785,0.4640035934876345,0.01183957731503295,10.84118964582632,0.6008370441236971
115.0,21.06842737292093,0.46420546413491653,0.01183504275923129,10.840670403549192,0.6008466331916522
116.0,21.07225952009703,0.4644073606115306,0.011830508851947441,10.840151155848849,0.6008562686857796
117.0,21.076091503092776,0.464609282828982,0.011825975593009264,10.839631902807655,0.6008663082309831
118.0,21.079923321334412,0.46481123069869074,0.011821442982243,10.83911264450805,0.6008763899821895
119.0,21.083754974247793,0.4650132041319879,0.011816911019473485,10.838593381032561,0.6008864655955201
120.0,21.087586461258418,0.465215203040124,0.01181237970452411,10.83807411246379,0.6008967669818684
121.0,21.091417781791414,0.4654172273342631,0.011807849037216989,10.837554838884419,0.6009072947607396
122.0,21.095248935271517,0.46561927692547894,0.011803319017372943,10.837035560377211,0.600917444177354
123.0,21.099079921123117,0.46582135172476763,0.011798789644811734,10.836516277025012,0.600928552254441
124.0,21.102910738770206,0.46602345164303943,0.011794260919351977,10.835996988910745,0.6009400005692636
125.0,21.106741387636426,0.4662255765911185,0.011789732840811334,10.835477696117412,0.6009520069477577
126.0,21.110571867145033,0.46642772647974556,0.01178520540900662,10.834958398728098,0.6009639892087336
127.0,21.114402176718915,0.46662990121957576,0.011780678623753817,10.834439096825966,0.600975286805715
128.0,21.118232315780595,0.4668321007211837,0.011776152484868161,10.83391979049426,0.6009864569079716
129.0,21.12206228375223,0.46703432489505614,0.011771626992164348,10.833400479816303,0.6009972327478071
130.0,21.125892080055586,0.46723657365159954,0.011767102145456515,10.832881164875499,0.6010076204131748
131.0,21.129721704112093,0.46743884690113596,0.01176257794455845,10.83236184575533,0.6010178376332364
132.0,21.13355115534278,0.46764114455390443,0.011758054389283604,10.831842522539361,0.6010277870067281
133.0,21.13738043316834,0.46784346652006065,0.011753531479445228,10.831323195311235,0.6010377478513701
134.0,21.14120953700906,0.46804581270967754,0.011749009214856509,10.830803864154674,0.6010476530043521
135.0,21.145038466284902,0.46824818303274623,0.011744487595330665,10.83028452915348,0.6010577274250258
136.0,21.14886722041543,0.46845057739917345,0.011739966620681103,10.829765190391539,0.6010679191606222
137.0,21.152695798820194,0.46865299571891844,0.011735446241908148,10.829245847950151,0.6010778766524212
138.0,21.156524200918145,0.46885543790175427,0.011730926497133202,10.828726501912827,0.6010874901542582
139.0,21.160352426127787,0.4690579038573439,0.011726407396795332,10.82820715236373,0.6010967814827214
140.0,21.16418047386727,0.4692603934952684,0.011721888940780016,10.827687799387105,0.6011061906321775
141.0,21.168008343554373,0.46946290672502794,0.011717371128971995,10.82716844306728,0.6011156350876434
142.0,21.17183603460651,0.4696654434560407,0.011712853961255858,10.826649083488661,0.6011250329207779
143.0,21.175663546440738,0.4698680035976446,0.01170833743751599,10.826129720735736,0.6011345342190542
144.0,21.179490878473747,0.47007058705909294,0.011703821557637072,10.82561035489307,0.6011440693254256
145.0,21.183318030121868,0.47027319374956544,0.01169930632150408,10.825090986045312,0.6011537984204322
146.0,21.187145000801056,0.4704758235781532,0.011694791729002427,10.824571614277192,0.6011635640469482
147.0,21.19097178992691,0.47067847645386623,0.011690277780018134,10.824052239673513,0.6011732385960912
148.0,21.19479839691468,0.4708811522856453,0.01168576447443786,10.823532862319167,0.6011828636202017
149.0,21.19862482117924,0.4710838509823392,0.011681251812149095,10.82301348229912,0.6011926361583603
150.0,21.20245106213511,0.47128657245272026,0.011676739793040172,10.822494099698417,0.6012027684400153
151.0,21.20627711919644,0.47148931660548316,0.01167222841700044,10.82197471460219,0.6012127154317752
152.0,21.21010299177703,0.47169208334923723,0.011667717683920218,10.821455327095643,0.601222539510791
153.0,21.213928679290323,0.4718948725925219,0.011663207593691018,10.820935937264064,0.6012321504871233
154.0,21.21775418114939,0.47209768424378784,0.01165869814620554,10.820416545192819,0.6012415859645773
155.0,21.221579496766946,0.4723005182114092,0.011654189341357752,10.819897150967355,0.6012511364016805
156.0,21.22540462555536,0.4725033744036851,0.011649681179043019,10.819377754673196,0.6012611296285585
157.0,21.229229566926634,0.4727062527288306,0.011645173659158146,10.818858356395946,0.6012712153920959
158.0,21.233054320292396,0.4729091530949856,0.011640666781601462,10.818338956221291,0.6012814312325445
159.0,21.236878885063952,0.47311207541020933,0.011636160546272863,10.817819554234992,0.60129130089146
160.0,21.24070326065222,0.4733150195824846,0.011631654953073924,10.817300150522895,0.601301201316073
161.0,21.24452744646778,0.47351798551971447,0.011627150001907999,10.816780745170917,0.6013110282291678
162.0,21.24835144192085,0.4737209731297242,0.011622645692680133,10.81626133826506,0.6013207373803613
163.0,21.252175246421285,0.47392398232026123,0.011618142025297354,10.815741929891402,0.6013312289125311
164.0,21.255998859378597,0.4741270129989977,0.011613638999668545,10.815222520136102,0.6013420968508939
165.0,21.259822280201934,0.47433006507352693,0.011609136615704615,10.814703109085396,0.6013528470150037
166.0,21.263645508300097,0.47453313845136375,0.011604634873318498,10.8141836968256,0.6013607846293952
167.0,21.267468543081527,0.4747362330399445,0.011600133772425199,10.813664283443106,0.6013721592912168
168.0,21.271291383954317,0.47493934874663707,0.011595633312941897,10.813144869024386,0.601382728969244
169.0,21.2751140303262,0.475142485478721,0.01159113349478799,10.812625453655992,0.6013931971901864
170.0,21.27893648160456,0.4753456431434084,0.011586634317885073,10.81210603742455,0.6014036836972773
171.0,21.28275873719643,0.47554882164783124,0.011582135782157006,10.81158662041677,0.6014142007813176
172.0,21.286580796508495,0.47575202089904534,0.011577637887529989,10.811067202719432,0.6014247661599644
173.0,21.290402658947073,0.4759552408040315,0.011573140633932505,10.810547784419404,0.6014359356203173
174.0,21.294224323918147,0.47615848126969446,0.011568644021295447,10.810028365603621,0.6014471017334609
175.0,21.298045790827352,0.4763617422028638,0.011564148049552097,10.809508946359102,0.6014568623452919
176.0,21.30186705907995,0.4765650235102937,0.011559652718638085,10.808989526772947,0.6014656001821705
177.0,21.30568812808088,0.47676832509866235,0.01155515802849153,10.808470106932326,0.6014753657071478
178.0,21.309508997234712,0.4769716468745729,0.011550663979052916,10.807950686924489,0.601485375682726
179.0,21.31332966594568,0.4771749887445577,0.011546170570265215,10.807431266836765,0.6014948541065638
180.0,21.31715013361766,0.47737835061506795,0.011541677802073751,10.806911846756561,0.6015043489221054
181.0,21.32097039965419,0.47758173239248264,0.011537185674426343,10.806392426771357,0.6015143638726113
182.0,21.32479046345845,0.4777851339831123,0.011532694187273217,10.805873006968714,0.6015240767492885
183.0,21.32861032443328,0.4779885552931855,0.011528203340566999,10.805353587436269,0.6015340259428512
184.0,21.332429981981175,0.47819199622886105,0.011523713134262741,10.804834168261735,0.6015447275910543
185.0,21.33624943550428,0.4783954566962236,0.011519223568317848,10.8043147495329,0.6015556971710866
186.0,21.34006868440439,0.4785989366012846,0.011514734642692053,10.803795331337634,0.6015664297186731
187.0,21.343887728082954,0.47880243584997934,0.011510246357347537,10.80327591376388,0.6015767489378517
188.0,21.347706565941095,0.47900595434817533,0.011505758712248647,10.802756496899656,0.6015868638311789
189.0,21.351525197379573,0.4792094920016649,0.0115012717073621,10.802237080833061,0.6015968621310633
190.0,21.355343621798795,0.47941304871616514,0.011496785342656808,10.801717665652266,0.6016068472279529
191.0,21.359161838598865,0.4796166243973243,0.01149229961810392,10.80119825144552,0.6016171159802907
192.0,21.362979847179492,0.4798202189507159,0.011487814533676734,10.800678838301149,0.6016272568091766
193.0,21.366797646940082,0.4800238322818422,0.011483330089350683,10.800159426307552,0.6016371145913527
