k,PSNR,SSIM,mse,Log-Gradient,Angle
0.0,20.62752615396559,0.4412252659800897,0.0,10.900231517168379,0.5944121105719559
1.0,20.630679802690665,0.44138327606545896,0.009902486999673834,10.89980287746436,0.5997098876255899
2.0,20.634482791875406,0.4415786919371622,0.012138682009827656,10.899290327469554,0.5997188099026697
3.0,20.638324541420854,0.44177674727536925,0.012313719388815019,10.898772880379843,0.5997291374063551
4.0,20.64217016226084,0.4419751241121978,0.012332823974364042,10.89825491883029,0.5997464560723177
5.0,20.646016319616113,0.4421735862182569,0.012333125227889909,10.897736861427553,0.5997593731737484
6.0,20.64986248355153,0.44237209408692085,0.01232989989972112,10.897218775525403,0.5997661888330368
7.0,20.6537085279483,0.4425706380137346,0.012325716144966463,10.896700677387528,0.5997783420655772
8.0,20.657554412314447,0.4427692148489286,0.012321186952907718,10.896182572076578,0.599784681635049
9.0,20.661400123109527,0.442967823428477,0.01231652249786541,10.895664461615569,0.5997913605944165
10.0,20.665245653047823,0.44316646309086116,0.01231178459710971,10.895146347075933,0.5997991816129177
11.0,20.66909099714016,0.44336513336473865,0.012306993015550364,10.894628229252717,0.5998067283881569
12.0,20.67293615327081,0.4435638340292378,0.01230217505751237,10.894110108656452,0.599814744353735
13.0,20.676781119984604,0.44376256492885363,0.012297343188027767,10.893591985541175,0.5998224079018853
14.0,20.680625896218356,0.4439613259327316,0.012292501377647347,10.893073860102966,0.5998297574890871
15.0,20.684470480913973,0.4441601169148451,0.012287653073520378,10.892555732511486,0.5998399602812484
16.0,20.68831487332207,0.4443589377755601,0.012282802226372408,10.892037602906736,0.5998507116642837
17.0,20.692159072631966,0.444557788413356,0.012277945600124195,10.891519471452115,0.5998608774533187
18.0,20.696003078169106,0.4447566687349689,0.012273087636498448,10.891001338248635,0.599870771930468
19.0,20.699846889345213,0.4449555786550363,0.012268229000904123,10.890483203402766,0.5998805714113741
20.0,20.703690505578678,0.44515451808683526,0.012263370447856674,10.889965067008887,0.5998903443112886
21.0,20.707533926256374,0.4453534869382234,0.012258511821537803,10.889446929155804,0.5999000678173934
22.0,20.711377150789268,0.4455524851213171,0.012253653522133708,10.888928789935957,0.5999097555075987
23.0,20.715220178619624,0.4457515125523757,0.012248795892180395,10.888410649436697,0.599919634705348
24.0,20.719063009187412,0.44595056914724734,0.01224393892799461,10.887892507743516,0.5999297210191171
25.0,20.722905641902138,0.44614965481730867,0.012239082074099523,10.887374364934873,0.5999397999539052
26.0,20.726748076200202,0.44634876947807034,0.012234225682063211,10.886856221097158,0.599949830512165
27.0,20.73059031151516,0.44654791304470587,0.012229369639136123,10.88633807631705,0.5999597638526385
28.0,20.734432347291055,0.4467470854333646,0.012224514384772085,10.885819930677485,0.599969678066364
29.0,20.73827418296766,0.4469462865595934,0.012219659828912927,10.885301784260665,0.5999795582598799
30.0,20.74211581796929,0.44714551633684296,0.01221480557970575,10.884783637147159,0.5999893584821493
31.0,20.74595725174001,0.44734477468110206,0.01220995214307852,10.884265489418942,0.5999990799157882
32.0,20.74979848372367,0.44754406150828324,0.012205099527682004,10.883747341157822,0.6000089426315344
33.0,20.753639513356205,0.4477433767333734,0.01220024766190107,10.883229192445304,0.6000187878075726
34.0,20.75748034005446,0.44794272026920584,0.012195396353355401,10.88271104336237,0.6000286812288779
35.0,20.761320963256395,0.44814209203106764,0.012190545661957345,10.882192893988021,0.6000385630431928
36.0,20.765161382403605,0.4483414919344683,0.012185695734193647,10.881674744402767,0.6000485803101311
37.0,20.769001596939233,0.44854091989497563,0.012180846641986457,10.881156594687857,0.6000585082505692
38.0,20.772841606306134,0.44874037582806814,0.0121759983886476,10.880638444924516,0.6000684773162428
39.0,20.776681409946875,0.4489398596491501,0.012171150977000665,10.880120295193962,0.6000784745859135
40.0,20.780521007303744,0.44913937127353903,0.012166304409460586,10.879602145577413,0.6000884532139059
41.0,20.784360397818723,0.4493389106164704,0.01216145868809886,10.87908399615611,0.6000984485844753
42.0,20.788199580933515,0.44953847759309956,0.012156613814696871,10.878565847011302,0.6001084166824587
43.0,20.792038556089494,0.4497380721184938,0.012151769790789803,10.878047698224272,0.6001183669539453
44.0,20.795877322727776,0.44993769410764556,0.012146926617703311,10.877529549876332,0.60012829193118
45.0,20.799715880289128,0.45013734347545115,0.012142084296583727,10.877011402048831,0.6001382455248107
46.0,20.80355422821404,0.4503370201367349,0.012137242828423685,10.876493254823163,0.600148210823174
47.0,20.807392365942682,0.4505367240062357,0.01213240221408335,10.875975108280763,0.6001580913337977
48.0,20.81123029291494,0.45073645499860177,0.01212756245430857,10.87545696250311,0.600168066070765
49.0,20.815068008570357,0.4509362130284085,0.012122723549746186,10.87493881757174,0.6001780176212658
50.0,20.818905512348206,0.45113599801014015,0.012117885500956951,10.874420673568236,0.6001881472900733
51.0,20.822742803687415,0.4513358098582003,0.012113048308426817,10.87390253057424,0.6001982875187014
52.0,20.82657988202663,0.45153564848690997,0.012108211972576284,10.873384388671443,0.6002083771610673
53.0,20.83041674680417,0.4517355138105062,0.01210337649376874,10.8728662479416,0.600218543553496
54.0,20.834253397458063,0.45193540574314434,0.012098541872317414,10.872348108466523,0.6002286974977489
55.0,20.83808983342601,0.45213532419889463,0.012093708108491488,10.871829970328081,0.6002388335133121
56.0,20.84192605414541,0.45233526909174654,0.012088875202521531,10.871311833608205,0.6002489303197213
57.0,20.845762059053342,0.4525352403356038,0.012084043154603905,10.870793698388892,0.6002588535346679
58.0,20.84959784758661,0.45273523784429087,0.012079211964904938,10.870275564752196,0.6002686354718169
59.0,20.853433419181655,0.45293526153154734,0.012074381633564378,10.869757432780238,0.6002781492899202
60.0,20.857268773274665,0.45313531131103263,0.012069552160698433,10.869239302555199,0.6002875562052993
61.0,20.861103909299935,0.45333538709616006,0.012064723467992118,10.86872117415926,0.6002968643933594
62.0,20.864938826691493,0.453535488800261,0.012059895552688433,10.868203047674648,0.6003061565696547
63.0,20.86877352488472,0.4537356163367566,0.01205506849859481,10.86768492318372,0.6003154789359294
64.0,20.87260800331466,0.45393576961899124,0.01205024230584941,10.867166800768905,0.600324921936883
65.0,20.876442261416077,0.45413594856022327,0.01204541697456999,10.866648680512695,0.6003347120677908
66.0,20.880276298623414,0.4543361530736274,0.01204059250485608,10.866130562497649,0.6003452210876882
67.0,20.884110114370785,0.4545363830723049,0.012035768896790713,10.865612446806395,0.6003557004563955
68.0,20.88794370809203,0.45473663846926565,0.012030946150442128,10.865094333521625,0.6003663039282611
69.0,20.89177707922065,0.4549369191774458,0.012026124265864963,10.864576222726102,0.6003771522443407
70.0,20.895610227189856,0.45513722510969573,0.012021303243101498,10.864058114502656,0.6003881308108248
71.0,20.899443151432536,0.45533755617878785,0.01201648308218269,10.863540008934182,0.6003990283391872
72.0,20.903275851381284,0.4555379122974113,0.012011663783129008,10.863021906103647,0.6004096725932325
73.0,20.90710832646838,0.4557382933781755,0.012006845345951199,10.862503806094084,0.6004189272309243
74.0,20.910940576125792,0.45593869933360914,0.01200202777065107,10.861985708988596,0.6004288087120168
75.0,20.914772599785184,0.4561391300761611,0.011997211057222052,10.861467614870353,0.6004399550090427
76.0,20.918604396877917,0.4563395855181997,0.011992395205649577,10.860949523822594,0.6004512876773896
77.0,20.92243596683504,0.45654006557201154,0.0119875802159119,10.860431435928628,0.6004626484159906
78.0,20.9262673090873,0.4567405701498055,0.011982766087980263,10.859913351271832,0.6004740378192907
79.0,20.930098423065143,0.45694109916370823,0.011977952821819335,10.85939526993565,0.6004851326559085
80.0,20.93392930819869,0.45714165252577116,0.011973140417387677,10.858877192003598,0.6004959727346506
81.0,20.937759963917774,0.4573422301479595,0.011968328874637946,10.858359117559262,0.600506433148933
82.0,20.941590389651928,0.4575428319421664,0.011963518193517217,10.857841046686294,0.6005168238416636
83.0,20.945420584830366,0.45774345782019976,0.01195870837396727,10.857322979468416,0.6005276086853094
84.0,20.949250548882006,0.4579441076937895,0.011953899415924807,10.85680491598942,0.600538555458874
85.0,20.953080281235465,0.4581447814745913,0.011949091319321689,10.856286856333165,0.6005494097517515
86.0,20.95690978131905,0.45834547907417683,0.01194428408408517,10.855768800583585,0.600560123186072
87.0,20.960739048560768,0.45854620040404215,0.011939477710138008,10.855250748824677,0.6005707593008069
88.0,20.964568082388336,0.4587469453756034,0.011934672197398709,10.854732701140511,0.6005812147838678
89.0,20.968396882229147,0.4589477139001976,0.011929867545781644,10.854214657615225,0.6005916150522804
90.0,20.97222544751032,0.45914850588908757,0.011925063755197297,10.853696618333027,0.600602213146046
91.0,20.97605377765864,0.459349321253456,0.011920260825552248,10.853178583378194,0.600612684673634
92.0,20.979881872100627,0.45955015990440656,0.011915458756749514,10.852660552835072,0.6006232469692043
93.0,20.983709730262472,0.45975102175296795,0.011910657548688388,10.852142526788079,0.6006336121270023
94.0,20.987537351570094,0.45995190671008696,0.011905857201264915,10.8516245053217,0.6006439207575692
95.0,20.99136473544909,0.4601528146866413,0.011901057714371725,10.85110648852049,0.6006540922569851
96.0,20.995191881324764,0.4603537455934219,0.011896259087898264,10.850588476469074,0.6006640782601297
97.0,20.99901878862214,0.46055469934115195,0.011891461321730848,10.850070469252145,0.6006734681190727
98.0,21.00284545676592,0.46075567584047006,0.011886664415752849,10.849552466954469,0.6006831758705645
99.0,21.006671885180538,0.4609566750019441,0.011881868369844662,10.849034469660879,0.6006931989415762
100.0,21.010498073290083,0.46115769673606444,0.011877073183883917,10.848516477456274,0.600702801835879
101.0,21.01432402051841,0.46135874095324253,0.011872278857745472,10.847998490425631,0.6007122289550774
102.0,21.01814972628904,0.4615598075638176,0.011867485391301598,10.84748050865399,0.6007214630319696
103.0,21.021975190025195,0.4617608964780496,0.011862692784421945,10.84696253222646,0.6007309192495544
104.0,21.02580041114983,0.46196200760612705,0.01185790103697378,10.846444561228223,0.6007400927895896
105.0,21.029625389085588,0.46216314085815813,0.011853110148821873,10.845926595744531,0.6007491071842052
106.0,21.033450123254823,0.462364296144179,0.011848320119828722,10.845408635860702,0.6007577145937232
107.0,21.037274613079603,0.46256547337415016,0.011843530949854589,10.844890681662125,0.600768577888013
108.0,21.041098857981687,0.4627666724579577,0.011838742638757584,10.844372733234257,0.6007778526124963
109.0,21.044922857382563,0.46296789330541466,0.011833955186393685,10.843854790662629,0.6007877696666184
110.0,21.048746610703407,0.46316913582625263,0.011829168592616882,10.843336854032836,0.6007976740471279
111.0,21.052570117365125,0.46337039993013684,0.01182438285727923,10.842818923430547,0.6008073183533719
112.0,21.05639337678832,0.46357168552665545,0.011819597980230856,10.842300998941495,0.6008168139139519
113.0,21.060216388393307,0.46377299252531984,0.011814813961320177,10.841783080651485,0.6008261314922404
114.0,21.06403915160012,0.46397432083557527,0.011810030800393802,10.841265168646393,0.6008356156494672
115.0,21.067861665828502,0.4641756703667848,0.011805248497296732,10.840747263012164,0.6008451742741595
116.0,21.071683930497894,0.4643770410282415,0.011800467051872397,10.840229363834807,0.600854714415849
117.0,21.07550594502747,0.4645784327291677,0.011795686463962677,10.839711471200408,0.600864722322248
118.0,21.079327708836104,0.4647798453787089,0.011790906733408076,10.839193585195117,0.6008747478101807
119.0,21.083149221342396,0.46498127888594176,0.011786127860047695,10.838675705905155,0.600884836993448
120.0,21.08697048196464,0.46518273315986725,0.011781349843719384,10.838157833416812,0.6008949788453196
121.0,21.09079149012087,0.4653842081094132,0.011776572684259773,10.837639967816443,0.6009055372193098
122.0,21.09461224522882,0.46558570364343915,0.011771796381504433,10.837122109190481,0.600915735205174
123.0,21.09843274670594,0.46578721967072995,0.011767020935287814,10.83660425762542,0.6009265247809701
124.0,21.102252993969408,0.46598875609999685,0.0117622463454435,10.836086413207825,0.6009379249394421
125.0,21.106072986436107,0.4661903128398838,0.01175747261180412,10.835568576024333,0.6009498688569662
126.0,21.109892723522638,0.4663918897989611,0.011752699734201613,10.835050746161643,0.6009618415780604
127.0,21.11371220464534,0.46659348688572627,0.011747927712467148,10.834532923706533,0.600973174871784
128.0,21.117531429220232,0.46679510400860763,0.011743156546431393,10.83401510874584,0.6009843457854006
129.0,21.1213503966631,0.4669967410759626,0.011738386235924474,10.833497301366474,0.6009951787341813
130.0,21.125169106389414,0.46719839799607765,0.011733616780776055,10.832979501655416,0.6010055924154561
131.0,21.128987557814376,0.4674000746771689,0.011728848180815626,10.832461709699711,0.601015813091892
132.0,21.13280575035292,0.4676017710273826,0.011724080435872437,10.831943925586474,0.6010257793887078
133.0,21.136623683419685,0.46780348695479274,0.011719313545775581,10.83142614940289,0.6010357180879597
134.0,21.140441356429037,0.4680052223674061,0.011714547510354332,10.830908381236213,0.6010455955596951
135.0,21.144258768795076,0.46820697717315646,0.011709782329437958,10.830390621173763,0.6010555570425916
136.0,21.1480759199316,0.46840875127991327,0.011705018002856055,10.829872869302926,0.6010657441690335
137.0,21.151892809252466,0.46861054459558554,0.01170025448871155,10.8293551257089,0.6010757306352658
138.0,21.155709436171062,0.4688123570279483,0.011695491810917927,10.828837390478288,0.6010853768190343
139.0,21.159525800100415,0.4690141884846648,0.011690729987070516,10.828319663698723,0.601094701575829
140.0,21.163341900453275,0.46921603887332813,0.011685969017071574,10.827801945457917,0.6011041438488366
141.0,21.167157736642118,0.46941790810145695,0.011681208900822736,10.827284235843642,0.6011135507097491
142.0,21.170973308079148,0.4696197960765119,0.01167644963822535,10.826766534943745,0.6011229299973254
143.0,21.174788614176272,0.4698217027058767,0.011671691229180929,10.82624884284614,0.6011323569697291
144.0,21.17860365434516,0.4700236278968682,0.011666933673591125,10.825731159638805,0.6011418800169749
145.0,21.18241842799719,0.470225571556743,0.011662176971358023,10.825213485409794,0.6011514707589448
146.0,21.18623293454348,0.47042753359268225,0.01165742112238429,10.824695820247223,0.6011612291777179
147.0,21.190047173394863,0.4706295139118017,0.01165266612657326,10.824178164239283,0.6011708806770883
148.0,21.19386114396191,0.4708315124211504,0.011647911983829003,10.823660517474227,0.6011804798150412
149.0,21.197674845654927,0.4710335290277124,0.01164315869405648,10.82314288004038,0.6011900419659529
150.0,21.20148827788394,0.47123556363839997,0.011638406257161608,10.822625252026135,0.601200184897838
151.0,21.205301440058708,0.47143761616006263,0.011633654673051393,10.82210763351995,0.6012101080554736
152.0,21.209114331588733,0.4716396864994838,0.011628903941633914,10.821590024610353,0.6012199408697835
153.0,21.212926951883237,0.471841774563381,0.011624154062818515,10.82107242538594,0.6012295784475292
154.0,21.216739300351186,0.4720438802583984,0.01161940503651585,10.820554835935376,0.6012389855517765
155.0,21.220551376401268,0.4722460034911265,0.011614656862637879,10.820037256347389,0.6012484876735199
156.0,21.22436317944192,0.47244814416808195,0.011609909541098095,10.81951968671078,0.6012582709755793
157.0,21.22817470888128,0.4726503021957165,0.011605163071811484,10.819002127114414,0.601268274385089
158.0,21.231985964127272,0.4728524774804206,0.011600417454694608,10.818484577647226,0.6012785018230334
159.0,21.235796944587513,0.4730546699285148,0.011595672689665755,10.817967038398214,0.601288416258867
160.0,21.239607649669377,0.4732568794462589,0.011590928776644943,10.817449509456445,0.6012982302438842
161.0,21.243418078779968,0.4734591059398474,0.011586185715553969,10.816931990911057,0.6013080782967202
162.0,21.24722823132613,0.4736613493154076,0.011581443506316626,10.816414482851247,0.6013177611013375
163.0,21.25103810671444,0.4738636094790049,0.011576702148858491,10.815896985366287,0.6013278596499182
164.0,21.254847704351217,0.4740658863366413,0.011571961643107294,10.815379498545507,0.6013386875723749
165.0,21.258657023642517,0.4742681797942531,0.011567221988992741,10.814862022478314,0.6013494488271539
166.0,21.262466063994143,0.474470489757715,0.011562483186446704,10.814344557254172,0.6013586646718723
167.0,21.266274824811624,0.4746728161328368,0.011557745235403198,10.813827102962614,0.6013686306981821
168.0,21.27008330550025,0.47487515882536374,0.011553008135798511,10.813309659693244,0.6013792368971774
169.0,21.273891505465023,0.47507751774098345,0.011548271887571177,10.812792227535725,0.6013897204739003
170.0,21.27769942411071,0.47527989278531463,0.011543536490662015,10.81227480657979,0.6014001494453445
171.0,21.281507060841815,0.47548228386391794,0.01153880194501425,10.811757396915237,0.6014105546039222
172.0,21.285314415062576,0.47568469088228676,0.01153406825057345,10.81123999863193,0.6014210557260498
173.0,21.289121486176988,0.4758871137458602,0.011529335407287594,10.810722611819797,0.6014319411329564
174.0,21.292928273588775,0.47608955236000544,0.011524603415107141,10.810205236568832,0.6014432344744792
175.0,21.296734776701413,0.4762920066300362,0.01151987227398499,10.809687872969098,0.6014536535353064
176.0,21.300540994918123,0.4764944764612011,0.011515141983876497,10.809170521110717,0.6014624011573698
177.0,21.304346927641873,0.4766969617586854,0.01151041254473955,10.808653181083884,0.6014715693818815
178.0,21.308152574275372,0.47689946242761955,0.011505683956534568,10.808135852978847,0.6014817623190186
179.0,21.311957934221084,0.4771019783730663,0.011500956219224374,10.807618536885933,0.6014913851235076
180.0,21.315763006881205,0.4773045095000334,0.011496229332774416,10.807101232895523,0.6015007533277056
181.0,21.319567791657686,0.47750705571346325,0.011491503297152579,10.806583941098067,0.6015106217936127
182.0,21.32337228795223,0.4777096169182393,0.011486778112329309,10.806066661584081,0.6015203994847543
183.0,21.32717649516629,0.47791219301918875,0.011482053778277485,10.805549394444142,0.6015300351338916
184.0,21.330980412701066,0.47811478392107415,0.011477330294972474,10.805032139768892,0.6015402886223378
185.0,21.334784039957498,0.4783173895286012,0.011472607662392154,10.804514897649039,0.6015513481280527
186.0,21.338587376336292,0.47852000974641234,0.011467885880516806,10.803997668175352,0.6015621648283692
187.0,21.342390421237887,0.4787226444790993,0.011463164949329132,10.803480451438668,0.6015725833391988
188.0,21.346193174062496,0.47892529363118336,0.011458444868814196,10.802963247529885,0.6015827055014635
189.0,21.34999563421006,0.47912795710713585,0.011453725638959461,10.802446056539962,0.6015926583182498
190.0,21.35379780108029,0.4793306348113677,0.011449007259754675,10.801928878559929,0.6016026715762777
191.0,21.35759967407264,0.4795333266482264,0.011444289731191961,10.801411713680872,0.6016127567473586
192.0,21.36140125258633,0.4797360325220102,0.011439573053265553,10.800894561993946,0.6016229532192774
193.0,21.36520253602032,0.47993875233695205,0.01143485722597205,10.800377423590366,0.6016329208476582
