k,PSNR,SSIM,mse,Log-Gradient,Angle
0.0,20.523091603601102,0.5113544763674845,0.0,10.97330175049879,0.5937465470845981
1.0,20.526185251730933,0.5114999369702681,0.010117099056370208,10.972905003842673,0.5958021135399924
2.0,20.52982969782374,0.5116741495582682,0.012058444369751597,10.97244355755734,0.5958179285514879
3.0,20.533500508808448,0.5118498579380838,0.012180018490763497,10.971979075787429,0.5958268069878899
4.0,20.537173532676576,0.5120257130591993,0.012190559151105491,10.971514320760777,0.5958332644358514
5.0,20.540846745782638,0.5122015989512326,0.012189395669603621,10.971049523281852,0.5958424687785007
6.0,20.544519845826066,0.5123774987210897,0.012186040701541874,10.970584719324625,0.5958499832530343
7.0,20.548192766904492,0.5125534084526727,0.012182096650165328,10.97011991762776,0.595855195135872
8.0,20.551865490645483,0.5127293270651364,0.012177969214846736,10.969655120687797,0.5958644250107258
9.0,20.55553801122337,0.5129052542173629,0.012173774230328326,10.96919032967567,0.5958726392318762
10.0,20.559210324522056,0.5130811896343347,0.012169528142711142,10.96872554523618,0.5958806647978027
11.0,20.56288242775168,0.5132571330846435,0.01216525899568584,10.968260767675524,0.5958882934528645
12.0,20.566554319563473,0.5134330844663815,0.012160979517457206,10.96779599726772,0.595895693664296
13.0,20.570225998892575,0.5136090436966233,0.012156691647000612,10.967331234177422,0.5959028529011544
14.0,20.57389746449931,0.5137850106630435,0.012152399125949462,10.966866478563073,0.5959098974454148
15.0,20.5775687155137,0.5139609852911171,0.01214810407547273,10.966401730557436,0.5959169131068546
16.0,20.5812397511804,0.5141369675109654,0.012143808156723572,10.96593699026424,0.5959238485310704
17.0,20.58491057077202,0.5143129572544263,0.012139509796822642,10.965472257797364,0.5959307636397968
18.0,20.588581173560772,0.5144889544539758,0.012135211451136668,10.965007533247434,0.5959375970469839
19.0,20.592251558790757,0.5146649590423192,0.012130912678463567,10.96454281669807,0.5959444768860106
20.0,20.595921725751335,0.5148409709528395,0.012126613976465507,10.96407810823655,0.5959513487083784
21.0,20.59959167373442,0.5150169901191639,0.012122315110291118,10.96361340795082,0.5959581795806121
22.0,20.603261402033674,0.5151930164750919,0.012118016673290408,10.963148715922017,0.5959649656519007
23.0,20.606930909943934,0.5153690499545465,0.012113718477412043,10.962684032224297,0.5959717431574063
24.0,20.61060019676079,0.5155450904915284,0.01210942061035208,10.962219356932637,0.5959784617668807
25.0,20.614269261780272,0.5157211380200913,0.01210512325179479,10.961754690125328,0.5959851941534747
26.0,20.617938104283716,0.5158971924744623,0.012100825977376677,10.961290031879656,0.5959919146919594
27.0,20.621606723544545,0.5160732537886705,0.012096528675712329,10.960825382272398,0.5959987176567016
28.0,20.625275118855097,0.5162493218964234,0.012092231856224848,10.960360741379946,0.5960055529667805
29.0,20.62894328950044,0.5164253967307784,0.012087935450824143,10.95989610927752,0.5960123612721145
30.0,20.632611234777073,0.5166014782258438,0.012083639583781785,10.959431486041659,0.5960192714727154
31.0,20.636278953981183,0.5167775663157126,0.012079344262082958,10.95896687174877,0.5960262887751335
32.0,20.63994644640857,0.5169536609344522,0.012075049491402754,10.958502266475145,0.5960333438639527
33.0,20.643613711354647,0.517129762016102,0.012070755276367922,10.958037670297008,0.5960404110446214
34.0,20.647280748114355,0.5173058694946738,0.012066461620760782,10.957573083290521,0.5960474772345208
35.0,20.650947555982192,0.517481983304143,0.012062168527678923,10.957108505531815,0.5960546219116991
36.0,20.654614134252167,0.5176581033784587,0.012057875999661252,10.956643937096995,0.5960617674146
37.0,20.658280482217783,0.5178342296515271,0.012053583807708919,10.956179378062105,0.5960689391795885
38.0,20.661946599228695,0.5180103620637269,0.012049292049119914,10.9557148285001,0.5960761727426156
39.0,20.66561248458095,0.5181865005492986,0.012045000845901668,10.955250288486852,0.5960834783945942
40.0,20.669278137566632,0.5183626450420481,0.012040710203426312,10.954785758098431,0.5960907757192148
41.0,20.672943557477268,0.5185387954757422,0.012036420122936872,10.954321237410928,0.5960980954823485
42.0,20.676608743603865,0.5187149517841113,0.012032130605492358,10.953856726500453,0.5961054931764455
43.0,20.680273695236867,0.518891113900846,0.012027841651996465,10.953392225443144,0.5961128769553408
44.0,20.683938411666155,0.5190672817595902,0.012023553263221264,10.952927734315173,0.5961201944762107
45.0,20.687602892181083,0.519243455293957,0.012019265439826581,10.95246325319274,0.5961275771255736
46.0,20.691267136070405,0.5194196344375116,0.012014978182376198,10.951998782152085,0.5961349789710444
47.0,20.694931142622348,0.5195958191237836,0.012010691491351312,10.951534321269481,0.596142418454569
48.0,20.698594911124562,0.5197720092862578,0.012006405367161839,10.951069870621245,0.5961497974629619
49.0,20.702258440864135,0.5199482048583811,0.012002119810155953,10.950605430283732,0.5961569414620354
50.0,20.70592173112758,0.5201244057735597,0.011997834820628201,10.950141000333335,0.5961637352118655
51.0,20.70958478120086,0.5203006119651524,0.011993550398826219,10.949676580846502,0.5961706540291652
52.0,20.713247590369356,0.5204768233664873,0.011989266544956755,10.94921217189971,0.5961777569427201
53.0,20.71691015791646,0.5206530399108006,0.01198498319696621,10.948747773567097,0.5961848797936058
54.0,20.72057248312411,0.5208292615312694,0.011980700312984672,10.948283385921254,0.5961920466936651
55.0,20.7242345652761,0.5210054881610954,0.011976417996265929,10.947819009038819,0.5961992201762096
56.0,20.727896403655663,0.5211817197334381,0.011972136247030855,10.947354642996476,0.5962063314084299
57.0,20.731557997545433,0.5213579561814193,0.011967855065476707,10.946890287870964,0.5962132449700496
58.0,20.735219346227517,0.52153419743812,0.011963574451779757,10.946425943739065,0.5962199338104434
59.0,20.738880448983416,0.5217104434365778,0.011959294406097463,10.94596161067761,0.5962265248810225
60.0,20.742541305094086,0.5218866941097904,0.011955014928570429,10.945497288763486,0.596233050967146
61.0,20.746201913839887,0.5220629493907144,0.011950736019323943,10.945032978073622,0.5962395394594292
62.0,20.74986227450063,0.5222392092122677,0.011946457678469477,10.944568678684998,0.5962459118215292
63.0,20.75352238635554,0.5224154735073233,0.011942179906105927,10.94410439067465,0.5962523023827734
64.0,20.757182248683293,0.5225917422087175,0.011937902702320598,10.943640114119658,0.5962598920661373
65.0,20.76084186076198,0.5227680152492451,0.01193362606719029,10.943175849097157,0.5962681521017678
66.0,20.764501221869107,0.5229442925616581,0.011929350000781953,10.94271159568433,0.5962736364853919
67.0,20.76816033128164,0.5231205740786714,0.011925074503153553,10.94224735395841,0.5962796859346432
68.0,20.77181918827595,0.5232968597329571,0.011920799574354674,10.941783123996686,0.5962856902610479
69.0,20.77547779212785,0.5234731494571454,0.011916525214427057,10.941318905876491,0.5962915489086598
70.0,20.779136142112584,0.5236494431838322,0.011912251423405145,10.940854699675215,0.596297253884176
71.0,20.782794237504817,0.5238257408455663,0.011907978201316555,10.9403905054703,0.5963029330042646
72.0,20.78645207757865,0.5240020423748629,0.011903705548182373,10.939926323339229,0.5963085138972128
73.0,20.790109661607623,0.5241783477041891,0.011899433464017646,10.939462153359548,0.5963141737706915
74.0,20.793766988864675,0.5243546567659805,0.01189516194883162,10.938997995608851,0.5963205346468015
75.0,20.79742405862223,0.5245309694926267,0.011890891002628048,10.93853385016478,0.5963275769339336
76.0,20.801080870152077,0.5247072858164832,0.011886620625405435,10.938069717105032,0.596334452767266
77.0,20.804737422725495,0.5248836056698593,0.01188235081715732,10.937605596507355,0.5963410679232505
78.0,20.808393715613157,0.5250599289850283,0.011878081577872429,10.937141488449546,0.59634737145085
79.0,20.81204974808518,0.5252362556942242,0.011873812907534856,10.936677393009456,0.5963533659684731
80.0,20.815705519411118,0.5254125857296404,0.01186954480612429,10.93621331026499,0.5963591279960359
81.0,20.81936102885994,0.5255889190234325,0.01186527727361611,10.935749240294095,0.5963646225927213
82.0,20.823016275700077,0.5257652555077139,0.01186101030998157,10.935285183174782,0.596369931502467
83.0,20.826671259199358,0.5259415951145616,0.011856743915187894,10.934821138985106,0.5963749199747594
84.0,20.83032597862507,0.5261179377760129,0.0118524780891984,10.934357107803173,0.5963798621211202
85.0,20.83398043324391,0.5262942834240644,0.011848212831972607,10.933893089707146,0.59638515235747
86.0,20.83763462232204,0.5264706319906769,0.011843948143466348,10.933429084775234,0.5963911566835639
87.0,20.84128854512503,0.5266469834077682,0.011839684023631848,10.9329650930857,0.5963972417625486
88.0,20.844942200917885,0.526823337607223,0.01183542047241781,10.93250111471686,0.5964035026397921
89.0,20.84859558896506,0.5269996945208802,0.011831157489769449,10.93203714974708,0.5964105690572256
90.0,20.852248708530436,0.527176054080548,0.011826895075628653,10.931573198254776,0.5964171334635419
91.0,20.85590155887732,0.5273524162179887,0.011822633229934007,10.931109260318419,0.5964234149730046
92.0,20.859554139268464,0.5275287808649312,0.011818371952620824,10.930645336016527,0.596429537693149
93.0,20.863206448966057,0.5277051479530653,0.011814111243621243,10.930181425427675,0.5964358085832684
94.0,20.86685848723171,0.5278815174140424,0.011809851102864338,10.929717528630487,0.5964424277361048
95.0,20.87051025332649,0.5280578891794735,0.011805591530276056,10.929253645703636,0.5964490594896739
96.0,20.874161746510886,0.5282342631809346,0.011801332525779432,10.928789776725848,0.5964557251019068
97.0,20.87781296604482,0.5284106393499629,0.01179707408929441,10.928325921775905,0.5964628918282177
98.0,20.881463911187666,0.5285870176180564,0.011792816220738226,10.927862080932636,0.5964701814980893
99.0,20.88511458119823,0.5287633979166797,0.011788558920025128,10.92739825427492,0.596477476153425
100.0,20.888764975334745,0.5289397801772551,0.011784302187066675,10.926934441881691,0.5964847521374043
101.0,20.89241509285489,0.5291161643311684,0.011780046021771674,10.926470643831934,0.5964921097641553
102.0,20.896064933015776,0.5292925503097706,0.011775790424046233,10.926006860204684,0.5964994347330043
103.0,20.899714495073972,0.529468938044372,0.011771535393793858,10.925543091079028,0.5965065770846154
104.0,20.903363778285456,0.5296453274662479,0.011767280930915522,10.925079336534104,0.5965137454152539
105.0,20.907012781905678,0.529821718506636,0.011763027035309665,10.924615596649105,0.5965209210582775
106.0,20.910661505189484,0.5299981110967377,0.0117587737068723,10.92415187150327,0.5965284173450051
107.0,20.914309947391207,0.5301745051677155,0.01175452094549703,10.923688161175892,0.5965357934286536
108.0,20.917958107764598,0.5303509006506981,0.011750268751075146,10.923224465746316,0.5965431695942182
109.0,20.921605985562834,0.5305272974767744,0.011746017123495739,10.922760785293939,0.5965504147754075
110.0,20.925253580038557,0.5307036955769985,0.01174176606264555,10.922297119898206,0.5965577299587309
111.0,20.928900890443842,0.5308800948823889,0.011737515568409322,10.921833469638617,0.596564948117433
112.0,20.932547916030202,0.5310564953239242,0.011733265640669703,10.92136983459472,0.5965721621192401
113.0,20.9361946560486,0.5312328968325507,0.011729016279307312,10.92090621484612,0.5965791529370433
114.0,20.93984110974942,0.5314092993391769,0.011724767484200857,10.920442610472469,0.596586251897401
115.0,20.94348727638252,0.5315857027746765,0.011720519255227218,10.919979021553468,0.5965935112402964
116.0,20.947133155197175,0.5317621070698831,0.011716271592261449,10.919515448168877,0.5966006607239086
117.0,20.950778745442115,0.5319385121556,0.011712024495176927,10.9190518903985,0.5966073291910483
118.0,20.95442404636551,0.53211491796259,0.011707777963845426,10.918588348322194,0.5966141295163446
119.0,20.958069057214978,0.5322913244215838,0.011703531998137144,10.918124822019873,0.5966206144549266
120.0,20.961713777237577,0.5324677314632756,0.011699286597920812,10.917661311571496,0.5966284035828547
121.0,20.96535820567981,0.5326441390183223,0.0116950417630638,10.917197817057074,0.5966359701077183
122.0,20.969002341787622,0.5328205470173489,0.01169079749343219,10.916734338556674,0.5966437780853078
123.0,20.97264618480642,0.5329969553909405,0.011686553788890811,10.91627087615041,0.5966516116450039
124.0,20.976289733981023,0.5331733640696521,0.011682310649303427,10.915807429918448,0.5966593238060439
125.0,20.97993298855574,0.533349772984001,0.011678068074532758,10.915343999941006,0.5966668805760295
126.0,20.98357594777429,0.5335261820644699,0.011673826064440548,10.914880586298354,0.5966743331584742
127.0,20.987218610879857,0.5337025912415044,0.011669584618887745,10.914417189070813,0.5966816120483457
128.0,20.99086097711506,0.5338790004455246,0.011665343737734493,10.913953808338754,0.5966886666225446
129.0,20.99450304572198,0.5340554096069016,0.01166110342084032,10.9134904441826,0.5966955264770837
130.0,20.998144815942137,0.5342318186559841,0.011656863668064177,10.913027096682827,0.5967026265075449
131.0,21.0017862870165,0.5344082275230807,0.011652624479264555,10.91256376591996,0.596709859846352
132.0,21.005427458185487,0.5345846361384688,0.011648385854299543,10.91210045197458,0.5967172970061639
133.0,21.00906832868897,0.5347610444323881,0.011644147793027021,10.911637154927309,0.5967249888382365
134.0,21.012708897766256,0.5349374523350466,0.011639910295304675,10.911173874858834,0.596732769778345
135.0,21.016349164656116,0.53511385977662,0.011635673360990079,10.910710611849883,0.5967414075899333
136.0,21.01998912859677,0.5352902666872453,0.011631436989940905,10.91024736598124,0.5967494105154004
137.0,21.02362878882588,0.5354666729970297,0.011627201182014902,10.90978413733374,0.5967563804126643
138.0,21.02726814458057,0.5356430786360473,0.011622965937070082,10.909320925988265,0.5967643607143513
139.0,21.030907195097406,0.5358194835343352,0.011618731254964756,10.908857732025755,0.5967726413295052
140.0,21.0345459396124,0.5359958876218999,0.011614497135557688,10.908394555527199,0.5967804826138624
141.0,21.038184377361034,0.5361722908287141,0.011610263578708185,10.907931396573634,0.5967881141090045
142.0,21.041822507578228,0.5363486930847163,0.011606030584276145,10.907468255246155,0.59679553772578
143.0,21.045460329498358,0.5365250943198149,0.011601798152122257,10.9070051316259,0.596802965920422
144.0,21.049097842355255,0.5367014944638807,0.011597566282107964,10.906542025794064,0.5968102211407238
145.0,21.052735045382207,0.5368778934467556,0.011593334974095659,10.906078937831891,0.5968172724092999
146.0,21.05637193781194,0.5370542911982482,0.011589104227948815,10.90561586782068,0.5968240592518878
147.0,21.06000851887665,0.5372306876481318,0.011584874043531933,10.90515281584178,0.5968307219572263
148.0,21.063644787807988,0.5374070827261516,0.011580644420710799,10.904689781976584,0.596837591967914
149.0,21.067280743837046,0.5375834763620161,0.01157641535935244,10.904226766306547,0.5968444502231295
150.0,21.070916386194384,0.5377598684854047,0.01157218685932537,10.90376376891317,0.5968512345406296
151.0,21.07455171411,0.5379362590259622,0.011567958920499466,10.903300789878005,0.5968579777905577
152.0,21.078186726813378,0.5381126479133039,0.011563731542746312,10.902837829282657,0.5968647164992016
153.0,21.081821423550142,0.5382890350771409,0.011559504691487636,10.902374887201182,0.5968714514659202
154.0,21.0854558035528,0.5384654204470568,0.01155527839242079,10.901911963713436,0.5968782225816488
155.0,21.089089866048788,0.5386418039525648,0.011551052654789614,10.901449058901397,0.5968849415004812
156.0,21.09272361026498,0.5388181855231496,0.0115468274785139,10.900986172847093,0.5968917524030642
157.0,21.096357035427697,0.538994565088263,0.011542602863514306,10.900523305632605,0.5968987066218402
158.0,21.099990140762742,0.5391709425773249,0.011538378809712242,10.900060457340068,0.5969054829937851
159.0,21.103622925495333,0.5393473179197248,0.011534155317029952,10.899597628051673,0.5969122626188137
160.0,21.107255388850167,0.5395236910448215,0.011529932385390589,10.89913481784966,0.596918934470683
161.0,21.110887530051382,0.5397000618819393,0.011525710014718145,10.898672026816325,0.5969254336182376
162.0,21.114519348322588,0.5398764303603776,0.011521488204937575,10.898209255034017,0.5969320951025454
163.0,21.118150842886823,0.5400527964094005,0.011517266955974808,10.897746502585134,0.5969388424484404
164.0,21.121782012966605,0.5402291599582417,0.011513046267756726,10.897283769552136,0.5969451865995413
165.0,21.125412857783893,0.5404055209361066,0.011508826140211243,10.896821056017524,0.5969513406039268
166.0,21.1290433765601,0.5405818792721668,0.011504606573267316,10.89635836206386,0.5969572818832901
167.0,21.13267356851612,0.5407582348955672,0.011500387566854987,10.89589568777376,0.5969626789474528
168.0,21.136303432872275,0.5409345877354209,0.01149616912090539,10.89543303322988,0.5969678274668853
169.0,21.139932968848356,0.5411109377208083,0.011491951235350736,10.894970398514944,0.5969727926392961
170.0,21.14356217566361,0.5412872847807843,0.011487733910124438,10.894507783711717,0.59697820941053
171.0,21.147191052536762,0.5414636288443716,0.01148351714516104,10.894045188903023,0.5969838513352207
172.0,21.150819598685953,0.5416399698405624,0.0114793009403963,10.893582614171732,0.5969894700758873
173.0,21.15444781332883,0.5418163076983205,0.011475085295767148,10.893120059600774,0.596995147237712
174.0,21.158075695682466,0.5419926423465796,0.011470870211211756,10.89265752527312,0.5970021740638382
175.0,21.161703244963412,0.5421689737142442,0.011466655686669554,10.892195011271806,0.5970097503585907
176.0,21.165330460387686,0.5423453017301897,0.011462441722081232,10.891732517679905,0.5970171236906925
177.0,21.168957341170746,0.5425216263232618,0.01145822831738876,10.891270044580555,0.5970232143269557
178.0,21.172583886527526,0.5426979474222775,0.011454015472535401,10.890807592056936,0.5970293585773522
179.0,21.176210095672424,0.5428742649560253,0.011449803187465758,10.89034516019228,0.5970357590788018
180.0,21.17983596781929,0.543050578853263,0.011445591462125777,10.88988274906988,0.5970423359372777
181.0,21.18346150218145,0.543226889042722,0.011441380296462694,10.889420358773068,0.5970490482510603
182.0,21.187086697971687,0.5434031954531036,0.011437169690425143,10.888957989385233,0.5970557196987033
183.0,21.19071155440225,0.5435794980130803,0.011432959643963167,10.888495640989813,0.5970621595991372
184.0,21.194336070684862,0.543755796651298,0.011428750157028133,10.888033313670299,0.5970682123497434
185.0,21.19796024603069,0.5439320912963722,0.011424541229572842,10.88757100751023,0.5970740110869822
186.0,21.201584079650377,0.5441083818768929,0.01142033286155152,10.887108722593197,0.5970795019878906
187.0,21.205207570754045,0.5442846683214188,0.011416125052919786,10.886646459002842,0.597084993230777
188.0,21.20883071855127,0.5444609505584849,0.01141191780363473,10.886184216822855,0.5970904897557455
189.0,21.212453522251096,0.5446372285165942,0.011407711113654847,10.885721996136981,0.5970961872457629
190.0,21.21607598106204,0.544813502124224,0.011403504982940122,10.885259797029008,0.5971022891554767
191.0,21.219698094192093,0.5449897713098227,0.011399299411451996,10.88479761958278,0.59710842527634
192.0,21.223319860848694,0.5451660360018136,0.011395094399153365,10.88433546388219,0.5971144642141618
193.0,21.226941280238773,0.5453422961285926,0.01139088994600865,10.883873330011177,0.5971204081762759
194.0,21.230562351568718,0.5455185516185265,0.01138668605198368,10.883411218053734,0.597126038710567
