k,PSNR,SSIM,mse,Log-Gradient,Angle
0.0,20.523091603601102,0.5113544763674845,0.0,10.97330175049879,0.5937465470845981
1.0,20.526184701935108,0.5114999111181905,0.010115301260003018,10.972905074354875,0.5958021122150298
2.0,20.529827950536692,0.5116740668856092,0.012054528843573132,10.972443780605058,0.5958179247005545
3.0,20.533496911619284,0.5118496872017401,0.012173948123944634,10.971979533949565,0.5958267995000978
4.0,20.537167432788497,0.5120254229834117,0.012182327531861051,10.971515096675715,0.5958332539353234
5.0,20.540837490369203,0.512201158248058,0.01217900288664014,10.9710506996066,0.5958424505330534
6.0,20.54450678208443,0.5123768760934009,0.012173488116254886,10.970586378728393,0.5958499505205263
7.0,20.54817524206762,0.5125525725949118,0.012167385976179057,10.970122142790292,0.5958551636928112
8.0,20.551842851986187,0.5127282466635783,0.012161102277863106,10.96965799429881,0.5958643842516008
9.0,20.555509606055907,0.5129038979502302,0.012154752902888921,10.969193934434564,0.5958725904910177
10.0,20.559175500203708,0.5130795261719178,0.01214835430461737,10.968729963851821,0.5958806039639394
11.0,20.56284053168383,0.5132551310894026,0.012141934541138,10.968266082866103,0.5958882192718423
12.0,20.56650469919266,0.513430712593031,0.012135506350215134,10.967802291760622,0.5958956052268982
13.0,20.57016800171135,0.5136062705922125,0.012129071671011855,10.96733859070912,0.5959027501475606
14.0,20.5738304380472,0.5137818049670383,0.012122634248656164,10.966874979879018,0.5959097779395269
15.0,20.577492007378055,0.5139573156354814,0.012116196205603577,10.966411459411953,0.5959167729272205
16.0,20.581152708997216,0.5141328025202336,0.01210975920321208,10.965948029420444,0.5959236879931017
17.0,20.584812542226828,0.5143082655457799,0.012103321668087459,10.965484690027047,0.5959305827045308
18.0,20.5884715063894,0.5144837046373187,0.012096886057080983,10.965021441330984,0.59593739122097
19.0,20.59212960078023,0.5146591197203595,0.01209045192798463,10.964558283424378,0.5959442461931221
20.0,20.595786824740685,0.5148345107211526,0.012084019778467287,10.964095216402923,0.5959510953269785
21.0,20.599443177615534,0.5150098775662799,0.012077589373693126,10.96363224036289,0.5959579031538138
22.0,20.603098658752103,0.5151852201825667,0.012071161307093287,10.963169355393642,0.5959646626634262
23.0,20.606753267499755,0.5153605384970367,0.012064735389618306,10.962706561577491,0.5959714124468111
24.0,20.610407003209428,0.5155358324368682,0.012058311708664848,10.962243858997466,0.5959781054323837
25.0,20.61405986523333,0.5157111019293704,0.012051890444099628,10.961781247739829,0.5959848051299723
26.0,20.617711852909796,0.5158863469020959,0.012045471169516061,10.961318727889745,0.5959914938091818
27.0,20.621362965570142,0.516061567282481,0.01203905377418012,10.960856299531788,0.5959982575202799
28.0,20.625013202565412,0.516236762997715,0.012032638767636624,10.960393962750045,0.5960050580567372
29.0,20.628662563240212,0.5164119339744091,0.012026226081064439,10.959931717627358,0.5960118351253731
30.0,20.63231104695142,0.516587080140308,0.012019815838814377,10.95946956424779,0.5960186913668674
31.0,20.635958653056452,0.5167622014232122,0.0120134080474825,10.959007502695183,0.5960256677020855
32.0,20.639605380913174,0.5169372977509746,0.012007002712353552,10.95854553305318,0.5960326776270343
33.0,20.64325122987991,0.5171123690514957,0.01200059983766307,10.958083655405263,0.5960396999918428
34.0,20.646896199315332,0.5172874152527258,0.01199419942680143,10.957621869834764,0.5960467262319179
35.0,20.650540288578554,0.5174624362826568,0.011987801482473906,10.957160176424894,0.5960538115942886
36.0,20.654183497029003,0.5176374320693236,0.011981406006826737,10.95669857525875,0.5960609138213344
37.0,20.657825824026474,0.5178124025408031,0.011975012769250908,10.956237066419282,0.5960680332022444
38.0,20.661467268987565,0.5179873476316951,0.01196862186747151,10.955775649986268,0.5960752083942847
39.0,20.665107831276437,0.5181622672705771,0.011962233423262573,10.955314326042297,0.596082457105528
40.0,20.668747510253983,0.5183371613856472,0.011955847441815158,10.954853094670073,0.5960897038931723
41.0,20.672386305281396,0.5185120299051494,0.011949463923980308,10.954391955952232,0.5960969573275606
42.0,20.676024215720183,0.5186868727573611,0.01194308287042525,10.953930909971342,0.5961043025936238
43.0,20.67966124093214,0.5188616898705937,0.011936704281662287,10.953469956809908,0.5961116341799098
44.0,20.683297380279384,0.5190364811732014,0.011930328158072368,10.953009096550376,0.5961188991517905
45.0,20.68693263312429,0.5192112465935711,0.011923954499924649,10.952548329275132,0.5961262067447789
46.0,20.690566998829567,0.5193859860601265,0.011917583307392654,10.952087655066514,0.5961335411990348
47.0,20.694200476758184,0.51956069950133,0.01191121458056773,10.951627074006797,0.5961409101555096
48.0,20.697833066273414,0.519735386845678,0.011904848319470451,10.951166586178216,0.5961482581641303
49.0,20.701464766738834,0.5199100480217028,0.011898484524060112,10.95070619166295,0.5961553893689168
50.0,20.705095577518282,0.5200846829579767,0.011892123194242843,10.950245890543131,0.5961622174175655
51.0,20.708725497975912,0.5202592915831029,0.011885764329878411,10.949785682900842,0.5961689771424088
52.0,20.71235452747615,0.520433873825726,0.01187940793078619,10.949325568818121,0.5961759967174044
53.0,20.7159826653823,0.5206084296144812,0.011873053933926814,10.948865548374561,0.5961830511146943
54.0,20.719609911057066,0.520782958878019,0.011866702297107071,10.948405621648131,0.596190118580989
55.0,20.72323626386587,0.5209574615450917,0.011860353123731385,10.947945788720755,0.5961972316616925
56.0,20.72686172317443,0.5211319375444914,0.011854006413635878,10.947486049674305,0.5962042986118535
57.0,20.730486288348743,0.5213063868050464,0.011847662166633716,10.94702640459062,0.5962112073021056
58.0,20.734109958755113,0.5214808092556202,0.01184132038251761,10.946566853551488,0.5962178898388056
59.0,20.737732733760126,0.5216552048251146,0.011834981061062047,10.946107396638661,0.5962244453571065
60.0,20.741354612730667,0.5218295734424675,0.011828644202025135,10.945648033933844,0.5962308871081016
61.0,20.74497559503392,0.5220039150366548,0.011822309805150378,10.945188765518704,0.596237344527383
62.0,20.748595680037365,0.5221782295366887,0.011815977870167896,10.944729591474866,0.5962436792450657
63.0,20.752214867108766,0.5223525168716184,0.01180964839679594,10.944270511883907,0.5962499664825397
64.0,20.755833155616195,0.5225267769705317,0.011803321384741659,10.943811526827371,0.5962568374545378
65.0,20.759450544928022,0.5227010097625516,0.011796996833702241,10.943352636386757,0.5962653627921466
66.0,20.763067034412902,0.5228752151768411,0.011790674743365728,10.94289384064352,0.5962713454179355
67.0,20.766682623439824,0.5230493931425988,0.011784355113411643,10.942435139679079,0.5962771923442074
68.0,20.77029731137804,0.5232235435890638,0.011778037943511762,10.941976533574804,0.5962831778438744
69.0,20.77391109759712,0.5233976664455101,0.011771723233330547,10.941518022412033,0.5962890230534542
70.0,20.777523981466935,0.5235717616412517,0.011765410982525794,10.941059606272058,0.5962947107208448
71.0,20.78113596235766,0.5237458291056406,0.011759101190749008,10.940601285236124,0.5963003086226276
72.0,20.78474703963977,0.5239198687680662,0.0117527938576458,10.940143059385445,0.5963058971035576
73.0,20.788357212684065,0.5240938805579569,0.011746488982856223,10.939684928801185,0.596311294466609
74.0,20.791966480861618,0.5242678644047816,0.011740186566015177,10.939226893564474,0.5963171432247072
75.0,20.795574843543832,0.5244418202380428,0.011733886606752664,10.938768953756393,0.5963239792079112
76.0,20.799182300102412,0.5246157479872878,0.01172758910469396,10.938311109457985,0.5963308565382202
77.0,20.802788849909376,0.5247896475820996,0.011721294059459968,10.93785336075025,0.596337534413735
78.0,20.80639449233705,0.5249635189520996,0.011715001470667312,10.937395707714149,0.5963439166080133
79.0,20.809999226758077,0.5251373620269514,0.011708711337928664,10.936938150430597,0.5963499651457467
80.0,20.813603052545396,0.5253111767363555,0.011702423660852763,10.936480688980472,0.596355801698282
81.0,20.81720596907228,0.5254849630100528,0.011696138439044653,10.936023323444607,0.596361354073462
82.0,20.820807975712295,0.5256587207778242,0.011689855672105825,10.93556605390379,0.5963667016940919
83.0,20.824409071839337,0.5258324499694899,0.011683575359634286,10.93510888043877,0.5963718331522921
84.0,20.828009256827627,0.5260061505149093,0.01167729750122472,10.934651803130256,0.5963766163101744
85.0,20.831608530051682,0.5261798223439839,0.011671022096468643,10.93419482205891,0.596381682991361
86.0,20.83520689088635,0.526353465386654,0.011664749144954344,10.933737937305354,0.5963868701765743
87.0,20.838804338706794,0.5265270795729001,0.011658478646267154,10.933281148950167,0.5963931563963253
88.0,20.842400872888504,0.5267006648327436,0.011652210599989384,10.932824457073886,0.5963988826470668
89.0,20.84599649280728,0.5268742210962459,0.0116459450057005,10.932367861757003,0.5964055324745867
90.0,20.849591197839267,0.5270477482935109,0.011639681862977183,10.931911363079967,0.5964123330162103
91.0,20.8531849873609,0.5272212463546829,0.011633421171393325,10.931454961123189,0.5964186812833272
92.0,20.85677786074898,0.5273947152099444,0.011627162930520145,10.930998655967029,0.5964248126630803
93.0,20.860369817380587,0.5275681547895222,0.01162090713992632,10.930542447691812,0.5964308442189247
94.0,20.863960856633177,0.5277415650236837,0.011614653799177862,10.930086336377812,0.5964370778024942
95.0,20.8675509778845,0.5279149458427373,0.011608402907838407,10.929630322105268,0.5964435898332706
96.0,20.871140180512636,0.5280882971770334,0.011602154465469089,10.929174404954367,0.5964500927280721
97.0,20.874728463896023,0.5282616189569628,0.011595908471628644,10.928718585005257,0.5964566903763232
98.0,20.878315827413402,0.5284349111129617,0.011589664925873504,10.928262862338041,0.5964637645964687
99.0,20.881902270443852,0.528608173575503,0.011583423827757828,10.92780723703278,0.5964709309813426
100.0,20.8854877923668,0.5287814062751073,0.01157718517683353,10.92735170916949,0.596478083250191
101.0,20.88907239256198,0.5289546091423349,0.011570948972650374,10.92689627882814,0.5964852279517164
102.0,20.892656070409497,0.5291277821077854,0.011564715214756025,10.92644094608866,0.5964924509226195
103.0,20.89623882528977,0.5293009251021076,0.011558483902696053,10.925985711030933,0.5964996319088646
104.0,20.899820656583547,0.5294740380559878,0.01155225503601401,10.925530573734797,0.596506634187128
105.0,20.903401563671938,0.5296471209001568,0.011546028614251554,10.925075534280047,0.5965136647250202
106.0,20.906981545936382,0.5298201735653879,0.01153980463694841,10.924620592746434,0.5965206948530779
107.0,20.910560602758657,0.5299931959825003,0.011533583103642478,10.924165749213662,0.5965280371192575
108.0,20.914138733520883,0.5301661880823522,0.011527364013869897,10.923711003761394,0.5965352765037001
109.0,20.91771593760553,0.5303391497958488,0.011521147367165073,10.923256356469244,0.5965424925521053
110.0,20.921292214395393,0.5305120810539363,0.011514933163060731,10.922801807416784,0.5965495909201208
111.0,20.92486756327365,0.5306849817876053,0.011508721401088136,10.922347356683538,0.5965567589777077
112.0,20.92844198362378,0.530857851927892,0.011502512080776885,10.92189300434899,0.5965638532552703
113.0,20.932015474829633,0.5310306914058743,0.011496305201655198,10.921438750492575,0.5965709280580357
114.0,20.93558803627542,0.5312035001526746,0.011490100763249899,10.920984595193682,0.5965778143623549
115.0,20.939159667345667,0.5313762780994608,0.011483898765086521,10.920530538531658,0.5965847234018465
116.0,20.942730367425277,0.5315490251774434,0.01147769920668928,10.920076580585802,0.5965917927440768
117.0,20.946300135899495,0.53172174131788,0.011471502087581346,10.919622721435367,0.5965988659047893
118.0,20.949868972153922,0.5318944264520701,0.011465307407284702,10.919168961159563,0.5966054783866681
119.0,20.953436875574518,0.5320670805113595,0.011459115165320383,10.918715299837553,0.5966120202568034
120.0,20.95700384554757,0.5322397034271388,0.011452925361208437,10.918261737548454,0.5966175608446908
121.0,20.96056988145975,0.5324122951308438,0.01144673799446813,10.917808274371335,0.5966257169991587
122.0,20.964134982698095,0.5325848555539552,0.011440553064617887,10.917354910385225,0.5966331418286354
123.0,20.967699148649963,0.5327573846279979,0.011434370571175535,10.9169016456691,0.5966406996594281
124.0,20.97126237870309,0.5329298822845449,0.011428190513658239,10.916448480301892,0.5966483372315624
125.0,20.974824672245582,0.5331023484552133,0.01142201289158268,10.91599541436249,0.5966559422641321
126.0,20.978386028665888,0.533274783071666,0.011415837704465128,10.915542447929733,0.5966633673964814
127.0,20.981946447352833,0.5334471860656124,0.01140966495182153,10.915089581082416,0.5966707168412159
128.0,20.985505927695595,0.5336195573688066,0.011403494633167545,10.914636813899286,0.5966778831413809
129.0,20.989064469083715,0.5337918969130507,0.01139732674801875,10.914184146459041,0.5966848895684501
130.0,20.99262207090712,0.5339642046301923,0.011391161295890644,10.913731578840338,0.5966917011751298
131.0,20.99617873255607,0.5341364804521255,0.011384998276298776,10.913279111121783,0.5966984609561166
132.0,20.999734453421222,0.5343087243107909,0.01137883768875883,10.912826743381936,0.5967054354815827
133.0,21.003289232893586,0.5344809361381765,0.01137267953278671,10.912374475699313,0.5967126070775571
134.0,21.00684307036453,0.534653115866314,0.01136652380789866,10.911922308152377,0.5967199711856715
135.0,21.010395965225822,0.5348252634272879,0.011360370513611365,10.911470240819549,0.596727459243191
136.0,21.013947916869572,0.5349973787532244,0.011354219649441987,10.9110182737792,0.5967351612980311
137.0,21.017498924688294,0.5351694617763013,0.011348071214908401,10.910566407109656,0.5967436841107722
138.0,21.02104898807484,0.535341512428742,0.011341925209529093,10.910114640889194,0.5967510669533166
139.0,21.02459810642246,0.5355135306428146,0.011335781632823432,10.909662975196044,0.5967579222426722
140.0,21.028146279124766,0.5356855163508385,0.011329640484311683,10.909211410108389,0.596765951061237
141.0,21.03169350557576,0.5358574694851818,0.011323501763515096,10.908759945704363,0.5967739254260154
142.0,21.035239785169814,0.536029389978257,0.011317365469956096,10.908308582062052,0.5967815054996627
143.0,21.038785117301664,0.5362012777625275,0.011311231603158212,10.907857319259499,0.596788923864683
144.0,21.042329501366464,0.5363731327705038,0.011305100162646332,10.907406157374691,0.5967961204063967
145.0,21.045872936759707,0.5365449549347451,0.011298971147946736,10.906955096485577,0.5968033301115709
146.0,21.04941542287728,0.5367167441878578,0.011292844558587145,10.906504136670048,0.5968103756779028
147.0,21.05295695911547,0.5368885004625,0.011286720394096887,10.906053278005954,0.5968172320103319
148.0,21.05649754487093,0.5370602236913737,0.011280598654006987,10.905602520571092,0.5968238334334851
149.0,21.060037179540693,0.5372319138072364,0.011274479337850161,10.905151864443217,0.5968302924769924
150.0,21.063575862522192,0.5374035707428898,0.011268362445160988,10.904701309700028,0.596836954212707
151.0,21.06711359321324,0.5375751944311836,0.011262247975476019,10.904250856419182,0.5968436251839689
152.0,21.070650371012036,0.5377467848050234,0.01125613592833376,10.903800504678284,0.5968502195053761
153.0,21.07418619531717,0.5379183417973578,0.011250026303274884,10.90335025455489,0.5968567492552933
154.0,21.077721065532465,0.5380898653412228,0.01124391908954009,10.902900106124308,0.5968632895762032
155.0,21.081254981072494,0.5382613553697919,0.011237814264672224,10.902450059457122,0.5968698118607801
156.0,21.084787941336597,0.5384328118161588,0.011231711861311904,10.90200011463096,0.5968763603523232
157.0,21.088319945724507,0.538604234613469,0.011225611879048577,10.901550271723409,0.5968829077456383
158.0,21.091850993636324,0.5387756236949216,0.01121951431747293,10.901100530811998,0.596889451695009
159.0,21.095381084472578,0.5389469789937603,0.01121341917617692,10.900650891974221,0.5968961900587467
160.0,21.09891021763415,0.5391183004432846,0.011207326454753757,10.900201355287516,0.5969027881325072
161.0,21.10243839252233,0.5392895879768405,0.01120123615279795,10.899751920829276,0.5969094222304017
162.0,21.105965608538803,0.5394608415278274,0.011195148269905296,10.899302588676848,0.5969159179635153
163.0,21.109491865085634,0.539632061029693,0.011189062805672965,10.898853358907528,0.5969222813294622
164.0,21.113017161565292,0.5398032464159384,0.011182979759699486,10.89840423159857,0.5969285201944302
165.0,21.116541497380638,0.5399743976201115,0.011176899131584818,10.897955206827172,0.5969351867336691
166.0,21.12006487193494,0.5401455145758177,0.011170820920930313,10.89750628467049,0.596941524274328
167.0,21.12358728463184,0.5403165972167078,0.011164745127338765,10.897057465205625,0.5969475794688617
168.0,21.127108734875396,0.540487645476488,0.011158671750414476,10.896608748509637,0.5969534949610454
169.0,21.130629222070066,0.5406586592889122,0.011152600789763194,10.896160134659533,0.5969590342338297
170.0,21.134148745620696,0.5408296385877904,0.011146532244992199,10.89571162373227,0.5969641843554336
171.0,21.137667304932556,0.5410005833069805,0.011140466115710292,10.895263215804757,0.5969691041093603
172.0,21.14118489941129,0.5411714933803952,0.011134402401527875,10.894814910953855,0.596974156630504
173.0,21.144701528462967,0.5413423687419957,0.01112834110205683,10.894366709256373,0.5969795303849703
174.0,21.14821719149406,0.5415132093258004,0.011122282216910683,10.89391861078907,0.5969852513454065
175.0,21.151731887911424,0.5416840150658758,0.011116225745704544,10.89347061562866,0.5969906631933811
176.0,21.155245617122354,0.5418547858963424,0.01111017168805513,10.893022723851802,0.5969960727246172
177.0,21.158758378534532,0.5420255217513734,0.011104120043580855,10.892574935535107,0.5970030703376977
178.0,21.16227017155606,0.5421962225651941,0.011098070811901622,10.89212725075513,0.5970104000812025
179.0,21.165780995595437,0.5423668882720837,0.011092023992639201,10.891679669588386,0.5970174924177004
180.0,21.169290850061593,0.5425375188063712,0.011085979585416851,10.891232192111332,0.597023409158176
181.0,21.17279973436384,0.5427081141024431,0.011079937589859628,10.890784818400375,0.5970293464299338
182.0,21.176307647911933,0.5428786740947367,0.011073898005594243,10.89033754853187,0.5970354233199312
183.0,21.17981459011602,0.5430491987177436,0.011067860832249133,10.889890382582122,0.5970418065361889
184.0,21.183320560386694,0.5432196879060066,0.011061826069454371,10.889443320627384,0.5970483443561968
185.0,21.18682555813492,0.5433901415941255,0.011055793716841867,10.888996362743862,0.5970548374075855
186.0,21.19032958277211,0.5435605597167498,0.011049763774045226,10.888549509007701,0.5970611063232006
187.0,21.193832633710098,0.5437309422085873,0.011043736240699764,10.888102759495004,0.5970670476074413
188.0,21.197334710361126,0.5439012890043955,0.011037711116442576,10.88765611428181,0.5970727382232089
189.0,21.200835812137846,0.5440716000389881,0.011031688400912508,10.887209573444121,0.5970781441264045
190.0,21.204335938453358,0.5442418752472338,0.011025668093750149,10.886763137057871,0.597083448447357
191.0,21.20783508872117,0.5444121145640541,0.01101965019459791,10.886316805198952,0.5970886469765031
192.0,21.211333262355204,0.5445823179244267,0.011013634703099948,10.8858705779432,0.5970941049025239
193.0,21.21483045876982,0.5447524852633804,0.011007621618902204,10.885424455366394,0.5970998332965306
194.0,21.218326677379803,0.5449226165160023,0.011001610941652385,10.884978437544266,0.5971058391598343
