k,PSNR,SSIM,mse,Log-Gradient,Angle
0.0,20.523091603601102,0.5113544763674845,0.0,10.97330175049879,0.5937465470845981
1.0,20.526185389210426,0.511499943434723,0.010117548605317384,10.972904986210704,0.5958021138713058
2.0,20.529830134773125,0.5116741702324638,0.012059423568377215,10.972443501779097,0.5958179295143421
3.0,20.53350140843326,0.5118499006376914,0.0121815367366299,10.971978961205117,0.5958268088607817
4.0,20.537175058315178,0.5120257856097988,0.012192618167135778,10.97151412669712,0.5958332670614422
5.0,20.540849060817152,0.5122017091831957,0.012191995553511456,10.971049229050312,0.5958424733409989
6.0,20.544523113669108,0.5123776544688299,0.012189181232758967,10.970584304230998,0.5958499914366276
7.0,20.5481971509961,0.5125536175544637,0.0121857775199387,10.97011936097059,0.5958552029985139
8.0,20.551871154452193,0.5127295973630487,0.012182190086267853,10.969654401758508,0.595864435206045
9.0,20.555545118237784,0.5129055935572313,0.01217853475463946,10.969189427758634,0.5958726514251885
10.0,20.559219038262494,0.5130816058657345,0.012174827969196656,10.96872443960877,0.5958806800176482
11.0,20.562892911761924,0.5132576340608704,0.012171097769888409,10.96825943760814,0.5958883120117427
12.0,20.566566737412533,0.5134336780444272,0.012167356882387079,10.967794422023818,0.5958957157909329
13.0,20.57024051417448,0.5136097377371628,0.012163607245477387,10.967329393013536,0.595902878635226
14.0,20.573914240832913,0.51378581303041,0.012159852599775738,10.966864350728837,0.595909927346218
15.0,20.57758791654246,0.5139619038532925,0.012156095065985617,10.966399295295604,0.5959169481868778
16.0,20.581261540572203,0.5141380101395591,0.012152336305065178,10.965934226810703,0.5959238887054603
17.0,20.584935112218993,0.5143141318246593,0.012148574744119374,10.965469145381174,0.5959308089193366
18.0,20.588608630779092,0.5144902688446621,0.012144812838000037,10.965004051090819,0.5959376485523783
19.0,20.59228209552046,0.5146664211358548,0.012141050145612195,10.96453894401645,0.5959445346267167
20.0,20.595955505756134,0.5148425886351781,0.012137287164472217,10.964073824238556,0.5959514122423685
21.0,20.599628860801495,0.5150187712798043,0.012133523659580477,10.963608691838314,0.5959582488089871
22.0,20.603302159973502,0.5151949690070623,0.012129760224122432,10.963143546890107,0.595965041603214
23.0,20.606975402590106,0.5153711817543847,0.012125996670151644,10.962678389461352,0.5959718260437435
24.0,20.6106485879698,0.5155474094592685,0.012122233085294549,10.962213219620308,0.5959785510053879
25.0,20.61432171543132,0.5157236520592443,0.012118469649045395,10.961748037438566,0.5959852915033178
26.0,20.61799478427856,0.5158999094919977,0.012114705937406205,10.961282842986723,0.5959920202339765
27.0,20.62166779380728,0.5160761816950024,0.0121109418386845,10.960817636334891,0.5959988331958516
28.0,20.62534074333195,0.5162524686053942,0.012107177862128431,10.96035241755281,0.5960056768090521
29.0,20.62901363215959,0.5164287701596372,0.012103413939685654,10.95988718670907,0.5960124929819364
30.0,20.63268645960848,0.5166050862952368,0.012099650195463364,10.959421943873597,0.5960194166548743
31.0,20.636359224996355,0.5167814169496582,0.01209588663639917,10.958956689116192,0.5960264444481055
32.0,20.640031927640415,0.516957762060328,0.012092123268120744,10.958491422506576,0.596033510900068
33.0,20.64370456685723,0.5171341215646273,0.012088360095207694,10.958026144114404,0.5960405890976509
34.0,20.64737714196276,0.5173104953998926,0.012084597121395294,10.957560854009294,0.5960476664327587
35.0,20.65104965227228,0.5174868835034084,0.012080834349734122,10.957095552260851,0.596054824844072
36.0,20.654722097100407,0.5176632858124105,0.012077071782716064,10.956630238938668,0.5960619812064906
37.0,20.658394475761042,0.51783970226408,0.012073309191598795,10.956164914112296,0.5960691672280568
38.0,20.662066787624106,0.5180161328020565,0.012069546673429373,10.955699577848216,0.5960764149284025
39.0,20.665739032005614,0.518192577363814,0.012065784350127525,10.955234230215842,0.5960837348836429
40.0,20.669411208217486,0.51836903588638,0.012062022226965771,10.954768871284806,0.5960910441157581
41.0,20.673083315570867,0.5185455083067275,0.012058260305139686,10.954303501124773,0.5960983820141967
42.0,20.676755353376194,0.5187219945617714,0.01205449858566075,10.953838119805456,0.5961057915051768
43.0,20.680427320943142,0.518898494588369,0.012050737069384974,10.953372727396605,0.5961131880891284
44.0,20.684099217580627,0.5190750083233225,0.012046975757036595,10.952907323968024,0.5961205230885945
45.0,20.687771042596825,0.519251535703374,0.012043214649227441,10.952441909589561,0.5961279221746633
46.0,20.69144279529915,0.5194280766652096,0.012039453746473174,10.951976484331126,0.5961353402023941
47.0,20.69511447499424,0.5196046311454549,0.012035693049206658,10.951511048262681,0.5961427956950467
48.0,20.698786080988,0.5197811990806781,0.012031932557789287,10.951045601454242,0.596150181828116
49.0,20.702457612585544,0.519957780407391,0.012028172272520638,10.950580143975888,0.596157328352796
50.0,20.70612906909123,0.5201343750620427,0.012024412193646337,10.950114675897757,0.5961641122471415
51.0,20.709800449808657,0.5203109829810258,0.012020652321365038,10.949649197290048,0.5961710758346631
52.0,20.713471754040633,0.5204876041006763,0.012016892655834213,10.949183708223027,0.596178199664379
53.0,20.71714298108779,0.5206642383572267,0.012013133135098955,10.948718208764618,0.596185338650583
54.0,20.720814130249103,0.5208408856868262,0.012009373717226296,10.948252698981229,0.5961925303795398
55.0,20.724485200825185,0.5210175460256362,0.012005614505285483,10.947787178943328,0.5961997180673105
56.0,20.728156192115893,0.5211942193097566,0.012001855499447194,10.947321648721452,0.5962068382568746
57.0,20.7318271034203,0.5213709054752322,0.011998096699858341,10.946856108386207,0.5962137526285315
58.0,20.73549793403672,0.5215476044580455,0.01199433810664464,10.946390558008263,0.5962204503598263
59.0,20.739168683262665,0.5217243161941242,0.011990579719912823,10.94592499765836,0.5962270415691268
60.0,20.742839350394902,0.5219010406193301,0.011986821539752487,10.945459427407302,0.5962335895558123
61.0,20.746509934729403,0.5220777776694754,0.011983063566237746,10.94499384732597,0.5962400869660365
62.0,20.750180435561383,0.5222545272803062,0.011979305799428734,10.944528257485306,0.5962464716559874
63.0,20.753850852185252,0.5224312893875105,0.011975548239372694,10.944062657956321,0.5962528966980686
64.0,20.75752118389468,0.5226080639267247,0.011971790886105175,10.943597048810101,0.5962606902251983
65.0,20.76119142998253,0.522784850833517,0.011968033739650953,10.943131430117795,0.5962686756944854
66.0,20.764861589740896,0.522961650043401,0.011964276800024777,10.942665801950627,0.59627422957871
67.0,20.768531662461097,0.5231384614918345,0.011960520067232158,10.942200164379885,0.5962803105896007
68.0,20.77220164743368,0.5233152851142114,0.01195676354127003,10.941734517476934,0.5962863191403683
69.0,20.775871543948394,0.5234921208458716,0.011953007222127303,10.941268861313205,0.5962921791591742
70.0,20.779541351294228,0.523668968622092,0.01194925110978533,10.940803195960196,0.5962978875055853
71.0,20.783211068759393,0.5238458283780955,0.011945495204218426,10.940337521489482,0.5963035914989573
72.0,20.78688069563129,0.524022700049043,0.011941739505394209,10.939871837972705,0.5963091635537964
73.0,20.790550231196583,0.52419958357004,0.01193798401327403,10.939406145481575,0.5963148974789222
74.0,20.794219674741132,0.52437647887613,0.011934228727813172,10.93894044408788,0.5963214217432391
75.0,20.797889025550017,0.5245533859023018,0.011930473648961288,10.93847473386347,0.5963284733345239
76.0,20.801558282907543,0.524730304583484,0.01192671877666249,10.938009014880272,0.596335347617949
77.0,20.805227446097234,0.5249072348545476,0.011922964110855796,10.937543287210284,0.5963419456398159
78.0,20.808896514401827,0.5250841766503046,0.011919209651475101,10.937077550925569,0.5963482221376526
79.0,20.8125654871033,0.5252611299055102,0.011915455398449522,10.936611806098266,0.5963542114442854
80.0,20.816234363482806,0.5254380945548601,0.01191170135170352,10.936146052800584,0.5963599499976802
81.0,20.819903142820763,0.5256150705329939,0.011907947511157067,10.935680291104806,0.5963654339229408
82.0,20.82357182439678,0.5257920577744926,0.011904193876725715,10.935214521083278,0.596370730037774
83.0,20.827240407489697,0.5259690562138779,0.011900440448320872,10.934748742808425,0.5963756807129302
84.0,20.83090889137757,0.5261460657856136,0.011896687225849772,10.934282956352742,0.5963807298262142
85.0,20.83457727533766,0.5263230864241097,0.011892934209215613,10.933817161788793,0.5963860324685936
86.0,20.838245558646467,0.5265001180637139,0.011889181398317739,10.933351359189214,0.5963922533817853
87.0,20.841913740579688,0.5266771606387181,0.011885428793051602,10.932885548626711,0.5963982063799794
88.0,20.845581820412256,0.5268542140833578,0.011881676393308945,10.932419730174066,0.596404814930304
89.0,20.849249797418302,0.5270312783318093,0.011877924198977865,10.931953903904128,0.5964118016244391
90.0,20.852917670871204,0.5272083533181909,0.011874172209942826,10.93148806988982,0.5964183112423668
91.0,20.856585440043517,0.5273854389765664,0.011870420426084794,10.931022228204137,0.5964245797320953
92.0,20.86025310420705,0.5275625352409387,0.011866668847281277,10.930556378920143,0.5964307460138557
93.0,20.863920662632793,0.5277396420452559,0.01186291747340638,10.930090522110973,0.5964371236546642
94.0,20.867588114590994,0.5279167593234095,0.011859166304330862,10.929624657849839,0.5964437814410705
95.0,20.87125545935109,0.5280938870092299,0.011855415339922239,10.929158786210019,0.5964504274977467
96.0,20.874922696181738,0.5282710250364954,0.01185166458004476,10.928692907264868,0.5964572009504002
97.0,20.878589824350804,0.528448173338925,0.011847914024559562,10.928227021087807,0.5964644670222337
98.0,20.8822568431254,0.5286253318501805,0.011844163673324604,10.927761127752333,0.5964718041090659
99.0,20.88592375177182,0.5288025005038671,0.011840413526194839,10.927295227332014,0.5964791117619584
100.0,20.889590549555592,0.5289796792335332,0.011836663583022237,10.926829319900488,0.5964864518624459
101.0,20.893257235741466,0.5291568679726714,0.01183291384365577,10.926363405531468,0.596493847187442
102.0,20.89692380959338,0.5293340666547155,0.011829164307941514,10.925897484298737,0.5965011742759543
103.0,20.900590270374515,0.5295112752130464,0.011825414975722748,10.925431556276148,0.5965083300992197
104.0,20.904256617347265,0.5296884935809837,0.011821665846839953,10.924965621537632,0.5965155151194222
105.0,20.907922849773225,0.5298657216917956,0.011817916921130876,10.924499680157187,0.596522788277199
106.0,20.911588966913218,0.530042959478689,0.011814168198430593,10.924033732208883,0.5965303515508456
107.0,20.915254968027273,0.5302202068748194,0.01181041967857157,10.923567777766866,0.59653776785588
108.0,20.918920852374644,0.5303974638132813,0.011806671361383778,10.923101816905351,0.596545130817974
109.0,20.922586619213792,0.5305747302271167,0.011802923246694609,10.922635849698628,0.596552428554899
110.0,20.926252267802404,0.5307520060493106,0.01179917533432911,10.922169876221053,0.5965597707565083
111.0,20.929917797397366,0.5309292912127902,0.011795427624109957,10.921703896547061,0.5965669762082967
112.0,20.933583207254784,0.5311065856504301,0.01179168011585751,10.92123791075116,0.5965742151770215
113.0,20.937248496630005,0.5312838892950463,0.011787932809389931,10.920771918907922,0.5965812289438375
114.0,20.940913664777536,0.5314612020794004,0.01178418570452323,10.920305921092,0.5965884178178739
115.0,20.944578710951163,0.5316385239361964,0.011780438801071323,10.919839917378116,0.5965957292407256
116.0,20.948243634403827,0.5318158547980852,0.011776692098846183,10.919373907841067,0.5966027864862704
117.0,20.951908434387736,0.5319931945976609,0.011772945597657784,10.918907892555715,0.5966094613022379
118.0,20.95557311015427,0.5321705432674624,0.011769199297314245,10.918441871597004,0.5966148482886351
119.0,20.95923766095405,0.532347900739973,0.011765453197622013,10.917975845039946,0.5966232503565817
120.0,20.962902086036905,0.5325252669476196,0.011761707298385752,10.917509812959626,0.5966309414359285
121.0,20.96656638465187,0.5327026418227776,0.011757961599408595,10.9170437754312,0.596638643806405
122.0,20.970230556047195,0.5328800252977602,0.011754216100492064,10.916577732529902,0.5966464814640777
123.0,20.973894599470366,0.5330574173048355,0.011750470801436349,10.916111684331034,0.5966543483056886
124.0,20.97755851416806,0.5332348177762075,0.011746725702040231,10.915645630909971,0.5966620314840706
125.0,20.981222299386168,0.5334122266440301,0.011742980802101274,10.915179572342163,0.5966696166509892
126.0,20.9848859543698,0.5335896438404,0.011739236101415852,10.914713508703136,0.5966770211137972
127.0,20.98854947836331,0.5337670692973612,0.011735491599779298,10.914247440068477,0.5966842847454175
128.0,20.992212870610203,0.5339445029469015,0.011731747296985952,10.913781366513863,0.5966913185133484
129.0,20.995876130353253,0.5341219447209548,0.011728003192829253,10.913315288115028,0.5966982517473902
130.0,20.999539256834417,0.5342993945514006,0.011724259287101912,10.912849204947792,0.5967054317470577
131.0,21.003202249294883,0.5344768523700628,0.011720515579595914,10.912383117088037,0.5967128087980337
132.0,21.00686510697505,0.5346543181087112,0.01171677207010264,10.911917024611727,0.5967204167472203
133.0,21.01052782911451,0.5348317916990638,0.011713028758413024,10.911450927594895,0.5967281396183423
134.0,21.014190414952097,0.5350092730727808,0.01170928564431757,10.91098482611365,0.5967362621196396
135.0,21.01785286372585,0.5351867621614711,0.011705542727606509,10.910518720244166,0.5967450011779639
136.0,21.021515174673013,0.5353642588966862,0.01170180000806987,10.910052610062705,0.5967524108095587
137.0,21.025177347030045,0.5355417632099275,0.011698057485497643,10.90958649564559,0.5967595450185735
138.0,21.02883938003263,0.5357192750326404,0.011694315159679738,10.909120377069218,0.5967681139703892
139.0,21.032501272915646,0.535896794296217,0.01169057303040625,10.90865425441007,0.5967762275288627
140.0,21.0361630249132,0.536074320931995,0.011686831097467446,10.90818812774469,0.5967840003540199
141.0,21.039824635258615,0.5362518548712593,0.011683089360653934,10.9077219971497,0.5967916029516264
142.0,21.043486103184406,0.5364293960452416,0.011679347819756714,10.907255862701794,0.5967990616425981
143.0,21.047147427922326,0.5366069443851171,0.01167560647456729,10.90678972447774,0.596806454736949
144.0,21.05080860870332,0.5367844998220126,0.011671865324877795,10.906323582554382,0.5968136814268608
145.0,21.054469644757564,0.5369620622869974,0.01166812437048107,10.905857437008633,0.596820648295879
146.0,21.058130535314433,0.5371396317110898,0.011664383611170743,10.905391287917485,0.5968273868157146
147.0,21.061791279602513,0.5373172080252536,0.011660643046741378,10.904925135358,0.5968341541727843
148.0,21.06545187684962,0.5374947911604018,0.011656902676988485,10.904458979407318,0.5968411256097924
149.0,21.069112326282774,0.5376723810473901,0.011653162501708711,10.903992820142648,0.5968480014958562
150.0,21.072772627128195,0.5378499776170268,0.011649422520699858,10.903526657641274,0.5968548006500128
151.0,21.07643277861133,0.5380275808000633,0.01164568273376101,10.90306049198056,0.5968616174691016
152.0,21.080092779960374,0.5382051905272265,0.01164194313345982,10.90259432323632,0.5968683923705889
153.0,21.083752630417006,0.5383828067293034,0.011638203690354348,10.902128151477974,0.5968751813113872
154.0,21.087412329203893,0.5385604293368867,0.011634464441417885,10.90166197678332,0.5968820177333153
155.0,21.091071875542934,0.5387380582805125,0.011630725386497781,10.901195799230225,0.5968887609957483
156.0,21.094731268655206,0.5389156934906678,0.011626986525442006,10.900729618896642,0.5968957896293803
157.0,21.098390507761017,0.5390933348977892,0.011623247858099168,10.900263435860596,0.596902663373541
158.0,21.102049592079858,0.5392709824322558,0.01161950938431835,10.899797250200187,0.5969095079817878
159.0,21.10570852083045,0.5394486360243966,0.01161577110394941,10.899331061993594,0.5969162673331411
160.0,21.10936729323071,0.5396262956044916,0.01161203301684271,10.898864871319073,0.5969228860694149
161.0,21.11302590849775,0.5398039611027675,0.011608295122849405,10.898398678254955,0.5969294065548751
162.0,21.116684365847917,0.5399816324493943,0.011604557421821348,10.897932482879643,0.5969363359891274
163.0,21.12034266449674,0.5401593095744972,0.011600819913611133,10.897466285271625,0.5969428832847111
164.0,21.124000803658962,0.5403369924081436,0.011597082598072146,10.897000085509458,0.5969491359417866
165.0,21.127658782548533,0.5405146808803543,0.011593345475058586,10.896533883671779,0.5969552524357501
166.0,21.13131660037861,0.5406923749210953,0.011589608544425499,10.896067679837298,0.5969608479812546
167.0,21.134974256361563,0.540870074460283,0.01158587180602879,10.895601474084803,0.5969661285495412
168.0,21.138631749708953,0.5410477794277826,0.011582135259725216,10.895135266493156,0.5969709926986804
169.0,21.142289079631574,0.5412254897534049,0.01157839890537255,10.8946690571413,0.5969764723051202
170.0,21.1459462453394,0.5414032053669139,0.011574662742829393,10.894202846108247,0.5969820067132643
171.0,21.14960324604163,0.5415809261980208,0.011570926771955389,10.893736633473086,0.5969877139435745
172.0,21.15326008094666,0.5417586521763816,0.011567190992611108,10.893270419314987,0.5969933312634574
173.0,21.156916749262095,0.5419363832316089,0.011563455404658158,10.89280420371319,0.5969999435684262
174.0,21.16057325019476,0.5421141192932605,0.011559720007959174,10.892337986747014,0.5970074454112194
175.0,21.164229582950664,0.5422918602908429,0.011555984802377824,10.89187176849585,0.5970151975854983
176.0,21.16788574673505,0.542469606153813,0.011552249787778855,10.891405549039167,0.597021512994894
177.0,21.171541740752346,0.5426473568115768,0.011548514964028034,10.890939328456508,0.5970276882309432
178.0,21.175197564206186,0.5428251121934909,0.011544780330992346,10.890473106827494,0.5970340128337268
179.0,21.17885321629945,0.5430028722288601,0.011541045888539792,10.890006884231818,0.5970406784559138
180.0,21.182508696234173,0.543180636846941,0.011537311636539536,10.88954066074925,0.5970474041074391
181.0,21.186164003211637,0.5433584059769365,0.011533577574861915,10.889074436459634,0.5970541581566002
182.0,21.189819136432316,0.5435361795480028,0.01152984370337837,10.88860821144289,0.5970607013448149
183.0,21.193474095095887,0.5437139574892457,0.011526110021961595,10.888141985779011,0.597066889074756
184.0,21.197128878401248,0.5438917397297183,0.01152237653048539,10.887675759548069,0.5970727709191845
185.0,21.200783485546495,0.5440695261984279,0.011518643228824814,10.887209532830205,0.5970783669475929
186.0,21.204437915728946,0.5442473168243295,0.01151491011685614,10.886743305705641,0.5970839119462384
187.0,21.2080921681451,0.5444251115363287,0.011511177194456853,10.88627707825467,0.5970894202849973
188.0,21.211746241990696,0.5446029102632822,0.01150744446150566,10.885810850557661,0.5970951522426126
189.0,21.215400136460673,0.5447807129339964,0.011503711917882518,10.885344622695055,0.5971012003469723
190.0,21.219053850749155,0.5449585194772313,0.011499979563468677,10.884878394747371,0.5971074101281129
191.0,21.222707384049507,0.5451363298216937,0.011496247398146617,10.884412166795203,0.5971135091783116
192.0,21.226360735554294,0.5453141438960425,0.011492515421800124,10.883945938919213,0.5971195399715282
193.0,21.23001390445527,0.5454919616288912,0.011488783634314248,10.883479711200145,0.597125327354652
194.0,21.23366688994342,0.5456697829487989,0.01148505203557533,10.883013483718814,0.5971302321897896
