k,PSNR,SSIM,mse,Log-Gradient,Angle
0.0,20.523091603601102,0.5113544763674845,0.0,10.97330175049879,0.5937465470845981
1.0,20.52618483936574,0.5114999175803483,0.010115750649192184,10.972905056729173,0.595802112546228
2.0,20.529828387281896,0.5116740875501563,0.012055507534913608,10.972443724852914,0.5958179256632617
3.0,20.533497810720117,0.5118497298765162,0.012175465323266493,10.971979419434092,0.5958268013716741
4.0,20.53716895736069,0.5120254954833727,0.012184384770173279,10.971514902747918,0.5958332565601773
5.0,20.540839803514118,0.5122012683901619,0.012181600069893333,10.971050405615593,0.5958424550937357
6.0,20.544510046875715,0.5123770316958532,0.012176624832306016,10.970585964023005,0.5958499587033731
7.0,20.548179621548165,0.5125527814769771,0.012171061724917153,10.970121586719486,0.5958551715524526
8.0,20.55184850916708,0.5127285166455113,0.01216531653125212,10.969657276211827,0.5958643944380586
9.0,20.555516703916062,0.5129042368532484,0.012159505121279212,10.969193033680996,0.5958726026713764
10.0,20.559184201689412,0.5130799418181702,0.012153643946642695,10.968728859781676,0.5958806191650008
11.0,20.56285099970852,0.5132556313019395,0.012147761061930239,10.96826475482983,0.5958882378089299
12.0,20.566517096636616,0.5134313051957854,0.012141869202614432,10.967800719109157,0.5958956273248844
13.0,20.570182491421477,0.5136069634099775,0.012135970307910198,10.967336752793909,0.5959027758199608
14.0,20.573847182836772,0.5137826058254459,0.0121300681221706,10.966872856052051,0.5959098078014065
15.0,20.57751117002652,0.5139582323609792,0.012124164767628247,10.966409029025787,0.5959168079428163
16.0,20.581174452249968,0.5141338429400667,0.012118261905688784,10.96594527182823,0.5959237281038824
17.0,20.584837028794958,0.5143094374879733,0.012112357963185905,10.965481584582566,0.5959306279114195
18.0,20.588498898949524,0.5144850159306524,0.012106455396698397,10.96501796738866,0.595937442647488
19.0,20.592160061974248,0.5146605781943483,0.012100553764368867,10.964554420339308,0.5959443038248818
20.0,20.595820517175575,0.5148361242060341,0.012094653563963425,10.964090943530902,0.5959511585844696
21.0,20.599480263863118,0.5150116538929844,0.01208875456074146,10.963627537060432,0.5959579722116487
22.0,20.60313930134885,0.5151871671827032,0.012082857348212654,10.963164201018019,0.5959647382932766
23.0,20.60679762894655,0.5153626640028693,0.012076961737676332,10.962700935486739,0.5959714948405553
24.0,20.61045524597137,0.5155381442813012,0.012071067816703024,10.962237740550417,0.5959781944485121
25.0,20.61411215173951,0.5157136079459232,0.012065175765212793,10.96177461629614,0.5959849023165605
26.0,20.61776834555308,0.5158890549248846,0.012059285157409304,10.961311562809914,0.5959915988864328
27.0,20.621423826706952,0.5160644851461998,0.012053395882494506,10.960848580177185,0.595998371740828
28.0,20.625078594515514,0.5162398985376128,0.012047508450081774,10.960385668482937,0.5960051817121284
29.0,20.628732648286476,0.516415295026276,0.012041622791631958,10.959922827810926,0.5960119665576168
30.0,20.632385987339653,0.5165906745404476,0.012035739031575007,10.959460058246163,0.5960188362963466
31.0,20.636038610995136,0.5167660370084257,0.012029857176703454,10.958997359873456,0.5960258226406824
32.0,20.63969051857327,0.51694138235854,0.012023977232498711,10.958534732777442,0.5960328439339785
33.0,20.64334170939462,0.5171167105191495,0.012018099203393282,10.958072177042617,0.5960398775603284
34.0,20.646992182779936,0.5172920214186392,0.012012223092974722,10.957609692753357,0.5960469130504287
35.0,20.65064193805012,0.5174673149854183,0.012006348904145502,10.95714727999394,0.5960540137905096
36.0,20.654290974526226,0.5176425911479182,0.012000476639249209,10.956684938848554,0.5960611269361575
37.0,20.657939291529438,0.5178178498345943,0.011994606068179092,10.956222669401258,0.5960682592945733
38.0,20.66158688843757,0.5179930909804059,0.011988737288651987,10.955760471732976,0.596075448394679
39.0,20.665233764575703,0.5181683145142624,0.011982870422599896,10.955298345927456,0.5960827118398676
40.0,20.66887991926547,0.5183435203646848,0.011977005475358087,10.954836292068597,0.5960899716754912
41.0,20.672525351828597,0.5185187084602064,0.011971142447974863,10.954374310240246,0.5960972405816733
42.0,20.676170061586895,0.5186938787293841,0.011965281341314618,10.953912400526205,0.5961046000874567
43.0,20.67981404786225,0.5188690311007885,0.011959422156086752,10.953450563010247,0.596111944655268
44.0,20.683457309976646,0.5190441655030065,0.011953564892869292,10.952988797776102,0.5961192227787434
45.0,20.687099847252128,0.5192192818646426,0.011947709552128311,10.952527104907471,0.5961265476554792
46.0,20.690741659010826,0.5193943801143197,0.011941856134234178,10.952065484488026,0.5961339000600184
47.0,20.694382744574938,0.5195694601806736,0.011936004639475037,10.951603936601407,0.5961412868687985
48.0,20.698023103266742,0.5197445219923567,0.011930155068068092,10.95114246133123,0.5961486434402096
49.0,20.701662734408583,0.5199195654780401,0.011924307420169198,10.950681058761088,0.5961557772862492
50.0,20.70530163732288,0.5200945905664093,0.011918461695880924,10.950219728974549,0.5961625984146742
51.0,20.70893981133213,0.5202695971861654,0.011912617895259357,10.949758472055153,0.5961693950755089
52.0,20.71257725575888,0.5204445852660272,0.011906776018320065,10.949297288086429,0.5961764354679643
53.0,20.716213969924347,0.5206195547346875,0.011900936002370535,10.948836177149474,0.5961835069644655
54.0,20.719849953148945,0.52079450552083,0.01189509780539631,10.948375139323794,0.5961905981308101
55.0,20.723485204755548,0.520969437553225,0.011889261530864037,10.947914174692867,0.5961977254427121
56.0,20.727119724067144,0.5211443507606593,0.011883427178805424,10.947453283340156,0.5962048076793689
57.0,20.730753510406753,0.5213192450719341,0.011877594749229092,10.946992465349101,0.5962117173805296
58.0,20.734386563097505,0.5214941204158717,0.011871764242123111,10.946531720803131,0.5962184016702438
59.0,20.738018881462583,0.521668976721308,0.01186593565745718,10.946071049785651,0.5962249665123646
60.0,20.741650464825263,0.5218438139170936,0.011860108995184514,10.945610452380052,0.5962314285727723
61.0,20.74528131250887,0.522018631932101,0.011854284255243524,10.945149928669705,0.5962378950868789
62.0,20.748911423836837,0.522193430695216,0.011848461437559262,10.94468947873797,0.5962442366058903
63.0,20.75254079813265,0.5223682101353432,0.011842640542044614,10.944229102668187,0.5962505440081806
64.0,20.75616943471989,0.5225429701814034,0.011836821568601342,10.943768800543674,0.5962575839067527
65.0,20.759797332922215,0.5227177107623354,0.011831004517121085,10.943308572447743,0.5962661813606703
66.0,20.763424492063336,0.5228924318070954,0.011825189387486206,10.942848418463681,0.5962719037064961
67.0,20.767050911467088,0.5230671332446568,0.01181937617957042,10.942388338674762,0.5962778143717392
68.0,20.77067659045735,0.52324181500401,0.011813564893239571,10.941928333164244,0.5962838074044208
69.0,20.77430152835811,0.5234164770141646,0.011807755528352106,10.941468402015367,0.5962896559352907
70.0,20.777925724493407,0.5235911192041488,0.011801948084759598,10.941008545311353,0.596295348554047
71.0,20.781549178187404,0.5237657415030054,0.011796142562307255,10.940548763135414,0.5963009610121874
72.0,20.78517188876432,0.5239403438397997,0.011790338960834217,10.94008905557074,0.5963065540683375
73.0,20.788793855548473,0.5241149261436112,0.01178453728017402,10.939629422700502,0.5963120148157418
74.0,20.792415077864256,0.5242894883435408,0.01177873752015491,10.939169864607864,0.5963179734912446
75.0,20.796035555036152,0.5244640303687061,0.01177293968059999,10.938710381375964,0.5963248787793464
76.0,20.79965528638874,0.5246385521482448,0.011767143761327635,10.938250973087928,0.596331760063437
77.0,20.80327427124669,0.5248130536113141,0.011761349762151683,10.937791639826864,0.5963384246893927
78.0,20.80689250893476,0.5249875346870865,0.011755557682881577,10.937332381675866,0.5963447897883741
79.0,20.810509998777782,0.525161995304757,0.011749767523322675,10.936873198718006,0.5963508164436312
80.0,20.814126740100697,0.5253364353935395,0.011743979283276286,10.936414091036344,0.5963566389521966
81.0,20.817742732228545,0.5255108548826651,0.011738192962539867,10.93595505871392,0.5963621700354265
82.0,20.821357974486446,0.5256852537013857,0.01173240856090725,10.93549610183376,0.5963675133861479
83.0,20.824972466199615,0.525859631778976,0.011726626078168644,10.935037220478867,0.5963726198920097
84.0,20.828586206693377,0.5260339890447249,0.011720845514110824,10.934578414732233,0.5963773643868941
85.0,20.832199195293143,0.5262083254279428,0.011715066868517187,10.934119684676832,0.5963825379248692
86.0,20.83581143132442,0.5263826408579636,0.011709290141167908,10.933661030395616,0.596387791820145
87.0,20.839422914112827,0.5265569352641379,0.011703515331840013,10.933202451971525,0.5963942178229296
88.0,20.843033642984064,0.5267312085758378,0.011697742440307435,10.93274394948748,0.5963998333972828
89.0,20.846643617263947,0.5269054607224534,0.011691971466341067,10.932285523026378,0.5964068232552328
90.0,20.85025283627839,0.5270796916334021,0.011686202409708923,10.93182717267111,0.5964135574953496
91.0,20.85386129935342,0.5272539012381131,0.01168043527017617,10.931368898504541,0.5964198662144994
92.0,20.857469005815137,0.5274280894660429,0.01167467004750513,10.93091070060952,0.5964259863554023
93.0,20.861075954989772,0.5276022562466685,0.011668906741455463,10.930452579068875,0.5964320663420142
94.0,20.86468214620367,0.527776401509484,0.011663145351784079,10.929994533965424,0.5964384137292745
95.0,20.868287578783253,0.5279505251840091,0.011657385878245332,10.92953656538196,0.5964449540837126
96.0,20.87189225205508,0.5281246271997827,0.011651628320590988,10.929078673401259,0.5964514699465292
97.0,20.8754961653458,0.5282987074863663,0.011645872678570342,10.928620858106079,0.5964581864349631
98.0,20.879099317982174,0.5284727659733411,0.011640118951930232,10.928163119579162,0.5964653531944826
99.0,20.882701709291087,0.528646802590314,0.011634367140415078,10.927705457903226,0.5964725644066319
100.0,20.88630333859953,0.528820817266911,0.011628617243766997,10.927247873160976,0.5964797317576139
101.0,20.88990420523459,0.5289948099327791,0.01162286926172581,10.926790365435096,0.5964869400190893
102.0,20.893504308523497,0.5291687805175919,0.011617123194029072,10.92633293480825,0.5964941970246959
103.0,20.897103647793575,0.5293427289510411,0.011611379040412236,10.925875581363085,0.596501380921398
104.0,20.90070222237228,0.5295166551628427,0.011605636800608608,10.925418305182228,0.5965083982906039
105.0,20.90430003158717,0.5296905590827375,0.011599896474349338,10.924961106348288,0.5965154447386808
106.0,20.907897074765923,0.529864440640485,0.01159415806136375,10.924503984943852,0.5965225694023499
107.0,20.911493351236352,0.5300382997658705,0.011588421561379042,10.924046941051492,0.5965299851255069
108.0,20.91508886032637,0.5302121363887018,0.011582686974120657,10.923589974753758,0.596537239786808
109.0,20.918683601364027,0.5303859504388094,0.011576954299312138,10.92313308613318,0.5965444683556516
110.0,20.922277573677487,0.5305597418460489,0.011571223536675305,10.92267627527227,0.5965516018399403
111.0,20.925870776595037,0.5307335105402978,0.011565494685930246,10.92221954225352,0.5965588065507225
112.0,20.929463209445093,0.5309072564514579,0.011559767746795468,10.921762887159403,0.5965658796006538
113.0,20.933054871556195,0.5310809795094547,0.011554042718987887,10.92130631007237,0.596573008421203
114.0,20.936645762257008,0.5312546796442374,0.011548319602222929,10.920849811074858,0.5965798785062252
115.0,20.940235880876322,0.5314283567857813,0.011542598396214588,10.920393390249272,0.5965868877785937
116.0,20.943825226743066,0.5316020108640814,0.011536879100675536,10.91993704767801,0.5965940356635554
117.0,20.947413799186286,0.5317756418091643,0.01153116171531716,10.919480783443445,0.5966010346146554
118.0,20.95100159753516,0.5319492495510727,0.011525446239849635,10.919024597627926,0.5966075661623391
119.0,20.954588621119008,0.5321228340198815,0.01151973267398208,10.918568490313788,0.5966142589933142
120.0,20.958174869267275,0.5322963951456848,0.011514021017422514,10.918112461583341,0.5966206033638644
121.0,20.961760341309535,0.5324699328586068,0.011508311269878009,10.917656511518878,0.596628287083235
122.0,20.96534503657551,0.5326434470887919,0.011502603431054815,10.917200640202669,0.5966357194065239
123.0,20.968928954395043,0.5328169377664137,0.011496897500658361,10.916744847716963,0.5966433984727958
124.0,20.97251209409813,0.5329904048216684,0.011491193478393376,10.916289134143991,0.5966510991901236
125.0,20.976094455014884,0.5331638481847802,0.011485491363964016,10.915833499565961,0.596658689785646
126.0,20.97967603647557,0.5333372677859971,0.011479791157073838,10.915377944065062,0.5966661163415903
127.0,20.983256837810597,0.5335106635555932,0.011474092857426076,10.914922467723459,0.5966734590180586
128.0,20.986836858350504,0.5336840354238702,0.011468396464723541,10.914467070623301,0.5966806234854666
129.0,20.990416097425985,0.5338573833211537,0.011462701978668865,10.91401175284671,0.5966875771828152
130.0,20.993994554367852,0.5340307071777969,0.01145700939896449,10.913556514475792,0.596694346906028
131.0,20.997572228507096,0.534204006924179,0.01145131872531281,10.913101355592628,0.596701273633501
132.0,21.001149119174816,0.5343772824907059,0.011445629957416272,10.91264627627928,0.5967083417395389
133.0,21.00472522570229,0.5345505338078125,0.011439943094977435,10.91219127661779,0.5967156061598803
134.0,21.00830054742092,0.5347237608059555,0.011434258137699153,10.911736356690172,0.5967231286129108
135.0,21.011875083662265,0.5348969634156223,0.011428575085284571,10.911281516578423,0.5967306617685726
136.0,21.01544883375803,0.5350701415673265,0.011422893937437228,10.910826756364523,0.5967389298235312
137.0,21.01902179704007,0.5352432951916097,0.011417214693861278,10.910372076130422,0.5967471423515569
138.0,21.0225939728404,0.535416424219039,0.011411537354261451,10.909917475958054,0.5967540950966913
139.0,21.026165360491174,0.5355895285802111,0.011405861918343219,10.909462955929325,0.5967614304948318
140.0,21.02973595932471,0.5357626082057495,0.011400188385812846,10.909008516126125,0.5967696962075772
141.0,21.03330576867346,0.5359356630263061,0.011394516756377567,10.908554156630322,0.5967775209519975
142.0,21.03687478787006,0.5361086929725581,0.011388847029745594,10.908099877523757,0.596785061728693
143.0,21.040443016247284,0.5362816979752173,0.011383179205626303,10.907645678888253,0.5967924312243693
144.0,21.044010453138057,0.5364546779650164,0.011377513283730205,10.90719156080561,0.5967996759300503
145.0,21.047577097875475,0.5366276328727203,0.011371849263769213,10.906737523357602,0.5968068500291517
146.0,21.0511429497928,0.5368005626291212,0.01136618714545657,10.906283566625987,0.5968138685646915
147.0,21.054708008223425,0.536973467165041,0.011360526928507038,10.905829690692498,0.5968206399379434
148.0,21.058272272500936,0.537146346411331,0.011354868612636964,10.90537589563884,0.5968271902803904
149.0,21.061835741959058,0.5373192002988691,0.011349212197564377,10.904922181546706,0.5968337459565253
150.0,21.065398415931686,0.537492028758565,0.011343557683009075,10.904468548497757,0.5968405260172608
151.0,21.06896029375288,0.5376648317213556,0.011337905068692693,10.904014996573636,0.5968472047903222
152.0,21.07252137475687,0.5378376091182079,0.011332254354338815,10.90356152585596,0.5968538045526296
153.0,21.076081658278042,0.5380103608801186,0.011326605539673075,10.903108136426328,0.5968604061982886
154.0,21.07964114366393,0.5381830869382155,0.011320958597081406,10.90265482836042,0.5968669783906855
155.0,21.08319983025643,0.5383557872236101,0.011315313538439483,10.902201601736564,0.5968735599220383
156.0,21.08675771739001,0.538528461667385,0.011309670379461954,10.901748456636504,0.596880186646021
157.0,21.090314804399327,0.5387011102006517,0.01130402911992302,10.901295393141961,0.5968867032409318
158.0,21.093871090619174,0.5388737327545546,0.01129838975959806,10.90084241133464,0.596893474589539
159.0,21.09742657538453,0.5390463292602662,0.011292752298263677,10.90038951129622,0.5969002040771872
160.0,21.10098125803054,0.5392188996489887,0.011287116735697659,10.899936693108364,0.5969068664670347
161.0,21.104535137892512,0.5393914438519584,0.011281483071678965,10.899483956852706,0.5969134562043362
162.0,21.108088214305923,0.539563961800439,0.011275851305987893,10.899031302610863,0.596919942813973
163.0,21.111640486606426,0.5397364534257277,0.01127022143840595,10.89857873046443,0.5969262545442339
164.0,21.11519195412984,0.53990891865915,0.011264593468715996,10.898126240494978,0.5969328391452083
165.0,21.11874261621216,0.5400813574320624,0.011258967396702237,10.897673832784056,0.5969393791288873
166.0,21.122292472189553,0.540253769675859,0.01125334322215027,10.897221507413189,0.5969455381384426
167.0,21.12584152139837,0.5404261553219568,0.011247720944846992,10.896769264463881,0.5969515382172214
168.0,21.129389763175123,0.540598514301811,0.011242100564580798,10.896317104017614,0.5969573232112871
169.0,21.13293719685651,0.5407708465469021,0.011236482081141494,10.895865026155844,0.5969626063039863
170.0,21.136483821779407,0.5409431519887503,0.011230865494320345,10.895413030960007,0.5969676522407186
171.0,21.14002963728087,0.5411154305589013,0.01122525080391008,10.894961118511512,0.5969724430560798
172.0,21.143574642698123,0.5412876821889366,0.011219638009704928,10.894509288891745,0.5969779252594322
173.0,21.147118837368595,0.541459906810468,0.011214027111500628,10.894057542182074,0.5969835351692061
174.0,21.150662220629883,0.5416321043551413,0.011208418109094483,10.893605878463832,0.5969890917946392
175.0,21.15420479181975,0.5418042747546324,0.011202811002285344,10.893154297818338,0.5969944880243093
176.0,21.15774655027618,0.5419764179406551,0.01119720579087357,10.892702800326882,0.5970011401376284
177.0,21.161287495337323,0.5421485338449493,0.011191602474661182,10.892251386070729,0.5970084232002709
178.0,21.16482762634151,0.5423206223992914,0.011186001053451723,10.891800055131123,0.5970158553508211
179.0,21.16836694262727,0.5424926835354924,0.011180401527050432,10.891348807589278,0.5970219565056497
180.0,21.171905443533316,0.5426647171853939,0.011174803895264124,10.890897643526388,0.5970279303177211
181.0,21.175443128398562,0.5428367232808723,0.011169208157901234,10.890446563023618,0.5970339515433805
182.0,21.17897999656209,0.5430087017538364,0.011163614314771916,10.889995566162108,0.5970404044098868
183.0,21.1825160473632,0.5431806525362307,0.011158022365687907,10.889544653022977,0.5970469544039791
184.0,21.186051280141356,0.5433525755600311,0.0111524323104627,10.889093823687311,0.5970535265362061
185.0,21.18958569423625,0.5435244707572487,0.011146844148911381,10.888643078236177,0.5970598972895184
186.0,21.193119288987745,0.5436963380599286,0.011141257880850828,10.888192416750611,0.5970659619316618
187.0,21.196652063735904,0.5438681774001497,0.011135673506099567,10.887741839311625,0.5970717166122951
188.0,21.200184017821005,0.5440399887100262,0.011130091024477822,10.887291346000204,0.5970772280065869
189.0,21.20371515058349,0.5442117719217063,0.011124510435807568,10.886840936897308,0.5970825782749976
190.0,21.20724546136404,0.5443835269673728,0.011118931739912512,10.886390612083867,0.5970878187512502
191.0,21.210774949503495,0.5445552537792425,0.011113354936618082,10.885940371640785,0.5970933039507699
192.0,21.214303614342953,0.5447269522895684,0.011107780025751458,10.885490215648945,0.5970990191299702
193.0,21.217831455223642,0.5448986224306372,0.011102207007141533,10.885040144189192,0.5971050701658315
