k,PSNR,SSIM,mse,Log-Gradient,Angle
0.0,20.523091603601102,0.5113544763674845,0.0,10.97330175049879,0.5937465470845981
1.0,20.526184014965068,0.5114998788160133,0.010113054912843492,10.972905162459892,0.5958021105594866
2.0,20.529825767575822,0.5116739635990258,0.012049637287912713,10.972444059267989,0.595817919887974
3.0,20.533492418078602,0.5118494739209102,0.0121663660485965,10.971980106276476,0.5958267901445763
4.0,20.537159813923033,0.5120250606733289,0.012172048000059226,10.971516065805668,0.5958332408136991
5.0,20.54082593172349,0.5122006078741634,0.012166027085977981,10.971052168660542,0.5958424277362961
6.0,20.54449046955903,0.5123760986253486,0.01215781882372182,10.970588450801099,0.5958499096089586
7.0,20.548153361934574,0.5125515290075244,0.01214902640742706,10.970124920948244,0.5958551244130751
8.0,20.55181459089394,0.5127268979371842,0.012140055786940466,10.969661581579485,0.5958643333524485
9.0,20.55547415103151,0.5129022050708291,0.012131022900665266,10.96919843384603,0.5958725296376802
10.0,20.559132038654727,0.5130774501313485,0.012121944209277813,10.968735478372443,0.5958805280247093
11.0,20.56278825139982,0.5132526328854682,0.012112847787115534,10.96827271544434,0.5958881266772548
12.0,20.56644278834647,0.5134277532296366,0.01210374638213786,10.96781014531484,0.5958954948400913
13.0,20.570095648860264,0.5136028110794663,0.012094641931978557,10.967347768127427,0.5959026219183731
14.0,20.573746832134145,0.513777806321376,0.012085538184373251,10.966885584019106,0.5959096287759547
15.0,20.577396337732715,0.5139527388797719,0.012076437261622839,10.966423593100938,0.5959165980996545
16.0,20.581044165337154,0.5141276086838906,0.01206734082357951,10.965961795454735,0.5959234878833077
17.0,20.584690314658495,0.5143024156648682,0.012058247294437992,10.965500191172186,0.5959303569093313
18.0,20.588334785409266,0.5144771597546589,0.012049159131146533,10.965038780321509,0.5959371345968073
19.0,20.591977577275834,0.5146518408856373,0.012040075888474744,10.964577562963687,0.5959439587697354
20.0,20.595618689991735,0.5148264589910304,0.012030998062338458,10.964116539163143,0.5959507795119484
21.0,20.599258123294927,0.5150010140044944,0.012021925416159077,10.963655708984726,0.5959575582743436
22.0,20.602895876927047,0.5151755058600426,0.012012858541708695,10.963195072486254,0.5959642853530193
23.0,20.606531950632792,0.5153499344919887,0.01200379724692718,10.96273462971835,0.5959710009405178
24.0,20.6101663441595,0.5155242998349122,0.011994741617076308,10.962274380732225,0.5959776612405142
25.0,20.613799057256873,0.515698601823624,0.011985691830492213,10.961814325582186,0.5959843201172482
26.0,20.617430089661738,0.5158728403932891,0.01197664745644844,10.961354464321303,0.5959909698391435
27.0,20.621059441105043,0.5160470154790573,0.011967608383269771,10.960894797001933,0.5959976870674174
28.0,20.624687111338492,0.5162211270159428,0.011958575118895622,10.960435323675803,0.5960044406065117
29.0,20.62831310010841,0.5163951749384839,0.01194954759183128,10.95997604439326,0.5960111793011348
30.0,20.631937407174465,0.5165691591824615,0.011940525924770384,10.959516959205745,0.5960179685366728
31.0,20.6355600322979,0.5167430796838111,0.0119315101220651,10.959058068164333,0.5960248959839246
32.0,20.639180975241466,0.5169169363786345,0.01192250018675517,10.95859937131978,0.5960318477705052
33.0,20.642800235769432,0.5170907292031816,0.011913496120830386,10.958140868722534,0.5960388156158523
34.0,20.64641781364749,0.5172644580938582,0.011904497925435182,10.95768256042277,0.5960457949828332
35.0,20.650033708642766,0.517438122987216,0.01189550560102867,10.957224446470404,0.5960528046563345
36.0,20.653647920523813,0.517611723819957,0.011886519147511116,10.956766526915104,0.5960598525987386
37.0,20.65726044906057,0.5177852605289287,0.011877538330498462,10.956308801806257,0.5960669067587144
38.0,20.660871294080614,0.5179587330575816,0.011868563246505065,10.955851271189964,0.5960740150690648
39.0,20.664480455360547,0.5181321413434928,0.011859594015253374,10.955393935114975,0.5960811875836646
40.0,20.668087932674513,0.5183054853239458,0.011850630639958759,10.954936793630035,0.596088369329113
41.0,20.67169372579805,0.5184787649363707,0.011841673119229288,10.954479846783688,0.5960955437207311
42.0,20.675297834508036,0.5186519801183369,0.01183272145149007,10.954023094624276,0.5961028226332171
43.0,20.678900258582708,0.5188251308075552,0.01182377563501205,10.953566537199945,0.5961100829161184
44.0,20.682500997801615,0.5189982169418811,0.011814835667935822,10.95311017455865,0.5961172864340428
45.0,20.686100051945676,0.519171238459306,0.011805901548290984,10.952654006748158,0.5961245077094534
46.0,20.689697420797128,0.5193441952979652,0.011796973274012587,10.952198033816044,0.596131752924299
47.0,20.69329310413955,0.5195170873961343,0.011788050842954421,10.951742255809704,0.5961390326768962
48.0,20.696887101757838,0.5196899146922266,0.011779134252900532,10.951286672776343,0.5961463294483242
49.0,20.700479413438245,0.5198626771247973,0.011770223501574736,10.950831284762991,0.5961534456107009
50.0,20.704070038968325,0.5200353746325437,0.01176131858664873,10.950376091816494,0.5961603024322777
51.0,20.707658978136983,0.5202080071542993,0.0117524195057489,10.949921093983521,0.5961669097488649
52.0,20.711246230734428,0.5203805746290393,0.011743526256462293,10.949466291310557,0.5961738135056766
53.0,20.714831796550794,0.5205530769958387,0.011734638772754944,10.949011683841507,0.5961807797785612
54.0,20.71841567537664,0.5207255141938825,0.011725757010303359,10.948557271618538,0.5961877339838605
55.0,20.721997867006294,0.5208978861625702,0.011716881070947054,10.948103054687634,0.5961947744396346
56.0,20.725578371235382,0.5210701928414383,0.01170801095229486,10.94764903309459,0.5962017622051826
57.0,20.729157187860885,0.5212424341701635,0.011699146651933801,10.947195206885036,0.5962086553260214
58.0,20.73273431668108,0.5214146100885618,0.011690288167431487,10.946741576104426,0.5962153333677279
59.0,20.736309757495576,0.5215867205365912,0.011681435496338382,10.946288140798037,0.5962218288083853
60.0,20.739883510105326,0.5217587654543445,0.011672588636189843,10.945834901010977,0.5962282053146162
61.0,20.74345557431258,0.5219307447820601,0.011663747584507505,10.945381856788176,0.5962345952267508
62.0,20.747025949920918,0.5221026584601114,0.011654912338800975,10.944929008174396,0.5962409095069305
63.0,20.750594636735258,0.5222745064290136,0.01164608289656888,10.944476355214222,0.5962471114317954
64.0,20.754161634561818,0.5224462886294212,0.01163725925529996,10.94402389795207,0.5962533695382649
65.0,20.75772694320815,0.5226180050021273,0.01162844141247417,10.943571636432177,0.5962610672942982
66.0,20.76129056248314,0.5227896554880673,0.011619629365563273,10.943119570698617,0.5962687417111233
67.0,20.764852492196972,0.522961240028314,0.011610823112031717,10.942667700795285,0.5962741243815903
68.0,20.768412732161174,0.52313275856408,0.011602022649337256,10.942216026765905,0.5962800162827784
69.0,20.771971282188577,0.5233042110367189,0.011593227974931484,10.941764548654032,0.5962858446642287
70.0,20.775528142093357,0.5234755973877238,0.01158443908626039,10.941313266503043,0.5962915346404647
71.0,20.779083311690986,0.523646917558726,0.01157565598076473,10.94086218035615,0.5962970768472066
72.0,20.782636790798282,0.5238181714914995,0.0115668786558805,10.94041129025639,0.5963025919004761
73.0,20.786188579233375,0.5239893591279539,0.011558107109039263,10.939960596246626,0.5963080225454102
74.0,20.789738676815702,0.5241604804101432,0.011549341337668407,10.939510098369553,0.5963134720885882
75.0,20.793287083366057,0.5243315352802578,0.011540581339191568,10.93905979666769,0.5963195153713331
76.0,20.796833798706515,0.5245025236806294,0.011531827111028736,10.938609691183391,0.5963263280461627
77.0,20.800378822660505,0.52467344555373,0.011523078650596544,10.93815978195883,0.5963330265290455
78.0,20.80392215505276,0.5248443008421706,0.011514335955308564,10.937710069036019,0.5963395022358479
79.0,20.807463795709346,0.5250150894887041,0.01150559902257526,10.937260552456786,0.5963456838541308
80.0,20.811003744457643,0.5251858114362191,0.011496867849804405,10.9368112322628,0.5963515456751585
81.0,20.814542001126355,0.5253564666277477,0.011488142434401024,10.93636210849555,0.5963572090474795
82.0,20.818078565545513,0.5255270550064622,0.01147942277376773,10.935913181196355,0.5963625971905387
83.0,20.821613437546453,0.5256975765156727,0.011470708865304671,10.935464450406364,0.5963678023986392
84.0,20.825146616961856,0.5258680310988316,0.01146200070640972,10.935015916166556,0.5963727789303882
85.0,20.828678103625702,0.5260384186995287,0.011453298294478565,10.934567578517733,0.5963774046479943
86.0,20.832207897373305,0.5262087392614953,0.011444601626904806,10.93411943750053,0.5963824756483331
87.0,20.8357359980413,0.5263789927286039,0.011435910701080083,10.933671493155408,0.596387559667964
88.0,20.839262405467657,0.5265491790448676,0.01142722551439404,10.933223745522659,0.5963938690191547
89.0,20.842787119491632,0.5267192981544354,0.011418546064234515,10.9327761946424,0.596399401023212
90.0,20.84631013995383,0.5268893500016001,0.011409872347987599,10.932328840554577,0.5964060418507934
91.0,20.849831466696173,0.5270593345307933,0.01140120436303758,10.931881683298968,0.5964126754106923
92.0,20.853351099561902,0.5272292516865887,0.01139254210676717,10.931434722915174,0.5964188748640454
93.0,20.85686903839558,0.5273991014136982,0.011383885576557444,10.930987959442628,0.5964248733816583
94.0,20.860385283043087,0.5275688836569731,0.011375234769787926,10.930541392920592,0.596430768939231
95.0,20.863899833351628,0.5277385983614075,0.011366589683836728,10.930095023388153,0.5964368468037037
96.0,20.867412689169733,0.5279082454721359,0.011357950316080456,10.929648850884227,0.5964432108854901
97.0,20.870923850347243,0.5280778249344288,0.01134931666389435,10.929202875447563,0.5964495729843806
98.0,20.874433316735335,0.5282473366937025,0.011340688724652315,10.928757097116732,0.5964559875457451
99.0,20.87794108818649,0.5284167806955082,0.011332066495727012,10.928311515930137,0.5964628578202894
100.0,20.881447164554523,0.5285861568855449,0.011323449974489837,10.92786613192601,0.5964698496573105
101.0,20.88495154569456,0.5287554652096415,0.011314839158311009,10.927420945142407,0.5964768499294633
102.0,20.888454231463058,0.5289247056137788,0.011306234044559627,10.926975955617218,0.5964838106025068
103.0,20.89195522171778,0.5290938780440698,0.011297634630603693,10.926531163388159,0.596490838271307
104.0,20.895454516317827,0.5292629824467682,0.01128904091381021,10.926086568492773,0.5964978783959888
105.0,20.898952115123613,0.5294320187682743,0.011280452891545167,10.925642170968432,0.5965047637290879
106.0,20.902448017996875,0.5296009869551219,0.011271870561173646,10.92519797085234,0.5965116009218968
107.0,20.905942224800643,0.529769886953989,0.011263293920059902,10.924753968181523,0.5965184134094624
108.0,20.909434735399323,0.529938718711693,0.011254722965567307,10.92431016299284,0.5965254897417195
109.0,20.91292554965859,0.5301074821751915,0.011246157695058535,10.92386655532298,0.5965326207759872
110.0,20.916414667445462,0.5302761772915847,0.011237598105895502,10.923423145208455,0.5965396365100554
111.0,20.919902088628277,0.5304448040081092,0.011229044195439599,10.922979932685609,0.5965465705182224
112.0,20.923387813076676,0.5306133622721446,0.011220495961051501,10.922536917790616,0.5965535299320739
113.0,20.926871840661647,0.5307818520312124,0.01121195340009149,10.922094100559473,0.5965604845888787
114.0,20.930354171255473,0.5309502732329711,0.011203416509919344,10.921651481028011,0.5965673505536832
115.0,20.93383480473178,0.5311186258252226,0.011194885287894496,10.921209059231886,0.5965742285791384
116.0,20.93731374096548,0.5312869097559084,0.01118635973137605,10.920766835206587,0.596580877469339
117.0,20.94079097983283,0.5314551249731104,0.011177839837722834,10.920324808987427,0.5965876893715383
118.0,20.944266521211404,0.5316232714250494,0.011169325604293602,10.91988298060955,0.5965946045169873
119.0,20.947740364980092,0.5317913490600893,0.011160817028446932,10.919441350107927,0.5966013249219079
120.0,20.951212511019094,0.5319593578267336,0.011152314107541398,10.91899991751736,0.596607608080617
121.0,20.95468295920993,0.5321272976736257,0.01114381683893569,10.918558682872476,0.5966140627614945
122.0,20.95815170943545,0.5322951685495508,0.011135325219988553,10.918117646207737,0.5966199966649919
123.0,20.961618761579814,0.5324629704034342,0.011126839248059007,10.917676807557427,0.5966275479565147
124.0,20.965084115528498,0.5326307031843409,0.011118358920506355,10.917236166955664,0.5966347308441137
125.0,20.968547771168303,0.5327983668414756,0.01110988423469025,10.916795724436392,0.5966421233865454
126.0,20.972009728387334,0.532965961324189,0.011101415187970864,10.916355480033383,0.5966495541327979
127.0,20.975469987075037,0.5331334865819642,0.011092951777708861,10.91591543378024,0.5966569115403187
128.0,20.978928547122145,0.53330094256443,0.011084494001265596,10.915475585710396,0.5966640912235441
129.0,20.982385408420733,0.5334683292213555,0.011076041856003112,10.915035935857109,0.5966712085748592
130.0,20.98584057086417,0.5336356465026469,0.011067595339284246,10.914596484253469,0.5966781461254549
131.0,20.98929403434717,0.5338028943583583,0.0110591544484728,10.914157230932396,0.5966849228382333
132.0,20.99274579876574,0.5339700727386756,0.011050719180933503,10.913718175926636,0.5966915347315659
133.0,20.996195864017203,0.5341371815939315,0.01104228953403217,10.913279319268765,0.5966981111862415
134.0,20.99964423000021,0.5343042208745943,0.011033865505135815,10.91284066099119,0.5967048711436659
135.0,21.003090896614726,0.5344711905312786,0.011025447091612716,10.912402201126143,0.5967118083270743
136.0,21.00653586376202,0.5346380905147351,0.01101703429083246,10.911963939705693,0.5967189011269444
137.0,21.009979131344693,0.5348049207758558,0.01100862710016609,10.91152587676173,0.5967261582119329
138.0,21.01342069926664,0.534971681265673,0.011000225516986241,10.911088012325978,0.5967334722582706
139.0,21.016860567433078,0.5351383719353641,0.010991829538667102,10.910650346429987,0.596741658507851
140.0,21.020298735750554,0.5353049927362382,0.010983439162584608,10.910212879105142,0.5967491235628568
141.0,21.023735204126904,0.5354715436197538,0.010975054386116505,10.90977561038265,0.59675574065528
142.0,21.02716997247129,0.5356380245375026,0.01096667520664244,10.909338540293556,0.5967630633999238
143.0,21.0306030406942,0.5358044354412225,0.010958301621544032,10.908901668868726,0.5967709307873482
144.0,21.034034408707406,0.5359707762827887,0.010949933628204978,10.908464996138862,0.5967783852130272
145.0,21.037464076424005,0.5361370470142167,0.010941571224011135,10.908028522134494,0.5967856060269418
146.0,21.040892043758422,0.5363032475876642,0.010933214406350665,10.907592246885978,0.5967926577567846
147.0,21.04431831062637,0.5364693779554287,0.010924863172614008,10.907156170423505,0.5967995729106096
148.0,21.04774287694488,0.5366354380699473,0.010916517520194038,10.906720292777091,0.5968064437979713
149.0,21.051165742632314,0.5368014278837965,0.010908177446486127,10.90628461397659,0.5968131826903176
150.0,21.054586907608318,0.5369673473496991,0.01089984294888827,10.905849134051675,0.596819690405386
151.0,21.058006371793855,0.5371331964205092,0.01089151402480109,10.905413853031856,0.5968259830215538
152.0,21.06142413511121,0.5372989750492289,0.01088319067162796,10.904978770946471,0.5968322219800065
153.0,21.064840197483967,0.5374646831889969,0.010874872886775133,10.90454388782469,0.5968386784512261
154.0,21.06825455883702,0.5376303207930924,0.010866560667651666,10.90410920369551,0.596845078250343
155.0,21.071667219096575,0.5377958878149344,0.010858254011669668,10.90367471858776,0.5968514041184806
156.0,21.075078178193728,0.5379613842081147,0.01084995290838389,10.903240432528484,0.5968576670729767
157.0,21.07848743607248,0.53812680992645,0.010841657329597515,10.902806345539325,0.5968639416055374
158.0,21.081894992662544,0.5382921649237778,0.010833367307085416,10.902372457648823,0.5968702128901591
159.0,21.085300847894914,0.5384574491540738,0.010825082838308834,10.901938768885351,0.59687651026238
160.0,21.088705001701907,0.5386226625714589,0.010816803920731068,10.90150527927711,0.5968827825693594
161.0,21.09210745401713,0.5387878051301884,0.010808530551817328,10.90107198885214,0.596889099623395
162.0,21.095508204775495,0.5389528767846619,0.010800262729034825,10.900638897638308,0.5968955503893744
163.0,21.098907253913204,0.5391178774894162,0.01079200044985277,10.900206005663314,0.5969019102499817
164.0,21.10230460136778,0.5392828071991301,0.010783743711742268,10.899773312954691,0.5969083116654715
165.0,21.105700247078033,0.5394476658686219,0.010775492512176642,10.899340819539805,0.5969145553270727
166.0,21.10909419098408,0.539612453452849,0.010767246848631127,10.89890852544585,0.5969206928885076
167.0,21.112486433027335,0.53977716990691,0.010759006718583075,10.898476430699857,0.596926674495701
168.0,21.115876973150506,0.5399418151860435,0.010750772119511936,10.898044535328683,0.5969330069299397
169.0,21.119265811297602,0.5401063892456274,0.010742543048899248,10.897612839359024,0.5969392019317422
170.0,21.122652947413947,0.5402708920411814,0.010734319504228654,10.8971813428174,0.5969450573992262
171.0,21.126038381446147,0.5404353235283589,0.010726101482985995,10.896750045730167,0.5969507544968956
172.0,21.12942211334211,0.540599683662964,0.010717888982659175,10.896318948123515,0.5969564562169786
173.0,21.132804143051032,0.5407639724009301,0.010709682000738349,10.895888050023462,0.5969617353923036
174.0,21.136184470523432,0.5409281896983377,0.010701480534715736,10.895457351455857,0.5969667359648981
175.0,21.139563095711104,0.5410923355114017,0.010693284582085833,10.895026852446385,0.5969714172099579
176.0,21.14294001856715,0.541256409796482,0.010685094140345287,10.894596553020559,0.5969766295953018
177.0,21.146315239045954,0.5414204125100741,0.010676909206992958,10.894166453203725,0.596981952313353
178.0,21.149688757103217,0.5415843436088147,0.010668729779529918,10.89373655302106,0.596987343891894
179.0,21.153060572695914,0.5417482030494806,0.01066055585545944,10.893306852497574,0.5969924035356261
180.0,21.156430685782336,0.5419119907889879,0.010652387432287061,10.892877351658106,0.5969977108943293
181.0,21.159799096322054,0.5420757067843919,0.010644224507520518,10.892448050527326,0.5970045450359379
182.0,21.163165804275938,0.5422393509928874,0.010636067078669839,10.89201894912974,0.5970115686336166
183.0,21.166530809606144,0.5424029233718094,0.010627915143247206,10.891590047489684,0.5970182600049789
184.0,21.169894112276143,0.5425664238786343,0.010619768698767155,10.891161345631321,0.5970239771367898
185.0,21.173255712250683,0.5427298524709725,0.010611627742746408,10.890732843578652,0.5970296770156129
186.0,21.176615609495805,0.5428932091065809,0.010603492272703997,10.890304541355505,0.5970353902493517
187.0,21.17997380397884,0.5430564937433481,0.010595362286161172,10.889876438985539,0.5970415105774092
188.0,21.183330295668416,0.5432197063393094,0.010587237780641495,10.889448536492246,0.5970477980750565
189.0,21.186685084534457,0.543382846852633,0.010579118753670744,10.88902083389895,0.5970540266094104
190.0,21.190038170548174,0.5435459152416323,0.010571005202777001,10.888593331228808,0.597060060440152
191.0,21.193389553682053,0.5437089114647565,0.010562897125490628,10.888166028504802,0.597065840138907
192.0,21.19673923390991,0.5438718354805947,0.010554794519344228,10.88773892574975,0.5970713757321721
193.0,21.200087211206807,0.5440346872478737,0.010546697381872694,10.887312022986302,0.5970766558284787
194.0,21.203433485549116,0.5441974667254625,0.010538605710613191,10.886885320236937,0.5970817166863962
