k,PSNR,SSIM,mse,Log-Gradient,Angle
0.0,20.32042963949219,0.4673896377258154,0.0,10.985552020335119,0.5931177018594069
1.0,20.323518806935382,0.46752769876216616,0.010211350023294007,10.985157803516246,0.5946224790085246
2.0,20.3271282910778,0.4676908649249509,0.012082303826317637,10.98470180564849,0.5946367255558752
3.0,20.33076085567837,0.46785521239021993,0.012189844271941598,10.984243110750075,0.5946402642086016
4.0,20.33439540280186,0.46801968989083026,0.012198262916247468,10.983784168903744,0.5946450074269364
5.0,20.33803032357204,0.4681842166946719,0.012197064970884906,10.98332516800171,0.5946496087680964
6.0,20.341665402787793,0.4683487818017116,0.012194243278591465,10.98286613472319,0.5946538343376272
7.0,20.34530059640028,0.46851338299898543,0.01219101583187008,10.982407075134722,0.5946580859690751
8.0,20.34893589337998,0.4686780196895719,0.012187660116058922,10.981947991212637,0.5946612194630395
9.0,20.352571290553037,0.46884269167496084,0.01218426455455903,10.981488883611155,0.5946653036028405
10.0,20.356206786553784,0.469007398865741,0.01218085297598251,10.981029752634337,0.5946706259023146
11.0,20.35984238047087,0.46917214120684464,0.012177431202316591,10.980570598501142,0.5946757415200815
12.0,20.36347807165679,0.46933691865035626,0.012174004762047937,10.980111421364576,0.5946807949854742
13.0,20.367113859385043,0.4695017311440867,0.012170572476430648,10.979652221373039,0.5946858032174397
14.0,20.370749743092258,0.46966657864494615,0.012167137011233141,10.979192998627846,0.5946908466596535
15.0,20.374385722213006,0.46983146111031165,0.012163699485155468,10.978733753221281,0.5946959724526947
16.0,20.378021796226204,0.469996378500068,0.012160260251826996,10.978274485242746,0.5947012116230027
17.0,20.38165796461627,0.47016133077461336,0.012156820305120287,10.977815194770823,0.5947064466981856
18.0,20.385294226871288,0.4703263178947019,0.012153380010883614,10.977355881878584,0.5947117699100747
19.0,20.388930582481795,0.4704913398213136,0.01214993948147024,10.976896546636057,0.5947170787229095
20.0,20.39256703093988,0.47065639651558283,0.012146498799778986,10.976437189111053,0.5947224301729718
21.0,20.396203571738624,0.47082148793872447,0.01214305802751672,10.975977809369756,0.5947277513303166
22.0,20.399840204371632,0.4709866140520029,0.01213961721100233,10.975518407477157,0.5947330547513663
23.0,20.40347692833273,0.4711517748167022,0.012136176385281132,10.975058983497375,0.594738368043282
24.0,20.407113743115758,0.4713169701940947,0.012132735577067219,10.974599537493868,0.5947436910529081
25.0,20.410750648214382,0.47148220014543046,0.012129294806866293,10.974140069529627,0.5947490120505313
26.0,20.414387643121984,0.47164746463192525,0.012125854090519968,10.973680579667285,0.5947543395367115
27.0,20.41802472733157,0.4718127636147573,0.012122413440338538,10.973221067969222,0.5947596514269384
28.0,20.421661900335696,0.4719780970550489,0.012118972865938372,10.97276153449764,0.5947650206839145
29.0,20.425299161626445,0.47214346491386866,0.012115532374865932,10.972301979314608,0.5947703693862166
30.0,20.428936510695337,0.4723088671522282,0.012112091973065977,10.971842402482123,0.5947757470344616
31.0,20.432573947033355,0.4724743037310732,0.01210865166523552,10.971382804062122,0.5947811247447415
32.0,20.436211470130882,0.47263977461129164,0.01210521145509335,10.970923184116527,0.5947864547268089
33.0,20.439849079477707,0.4728052797536985,0.012101771345586342,10.970463542707254,0.5947917833836976
34.0,20.44348677456299,0.47297081911904665,0.012098331339048867,10.970003879896232,0.5947971409963205
35.0,20.44712455487528,0.47313639266802315,0.012094891437326163,10.969544195745417,0.5948024652824989
36.0,20.450762419902468,0.47330200036123954,0.012091451641870886,10.969084490316806,0.594807703949225
37.0,20.454400369131815,0.47346764215923925,0.01208801195381881,10.968624763672432,0.5948129082624317
38.0,20.458038402049922,0.4736333180224988,0.012084572374048634,10.968165015874389,0.5948181224190697
39.0,20.461676518142742,0.4737990279114202,0.012081132903229447,10.967705246984822,0.5948233927067468
40.0,20.46531471689557,0.473964771786338,0.012077693541858683,10.967245457065943,0.5948286563505557
41.0,20.46895299779304,0.4741305496075115,0.012074254290292281,10.966785646180021,0.594834058051289
42.0,20.47259136031911,0.47429636133512815,0.012070815148769558,10.966325814389402,0.5948395825424423
43.0,20.476229803957096,0.4744622069293105,0.01206737611743273,10.965865961756494,0.5948451793587813
44.0,20.47986832818961,0.4746280863501022,0.012063937196343195,10.965406088343787,0.5948507883529375
45.0,20.48350693249864,0.47479399955747525,0.012060498385494766,10.96494619421384,0.594856426003905
46.0,20.48714561636546,0.47495994651133255,0.012057059684824411,10.964486279429288,0.5948620299765222
47.0,20.490784379270693,0.4751259271715052,0.012053621094221355,10.96402634405284,0.5948677607702167
48.0,20.494423220694294,0.47529194149774484,0.012050182601736618,10.96356638814728,0.5948735269722863
49.0,20.49806214011553,0.4754579894497388,0.012046744000313277,10.963106411775243,0.5948793008580952
50.0,20.501701137012986,0.47562407098709847,0.01204330550685145,10.962646414999663,0.5948850380173275
51.0,20.505340210864595,0.4757901860693647,0.012039867121294455,10.962186397883551,0.5948906611030642
52.0,20.50897936114759,0.4759563346559989,0.012036428843563811,10.961726360490003,0.5948961910936694
53.0,20.512618587338537,0.476122516706398,0.012032990673562614,10.961266302882192,0.5949017625032782
54.0,20.516257888913323,0.47628873217988515,0.01202955261117843,10.960806225123378,0.5949074239121496
55.0,20.519897265347147,0.4764549810357052,0.012026114656285608,10.960346127276896,0.5949129506869081
56.0,20.52353671611456,0.4766212632330309,0.012022676808747143,10.95988600940617,0.594918382684726
57.0,20.527176240689396,0.4767875787309717,0.012019239068416305,10.9594258715747,0.594923777781251
58.0,20.530815838544836,0.4769539274885555,0.012015801435138033,10.958965713846073,0.5949295357608422
59.0,20.53445550915336,0.47712030946473544,0.012012363908750047,10.95850553628396,0.5949351236408981
60.0,20.538095251986796,0.4772867246183985,0.012008926489083787,10.958045338952113,0.5949386747789983
61.0,20.541735066516264,0.47745317290835665,0.01200548917596536,10.957585121914368,0.5949430703753121
62.0,20.54537495221222,0.4776196542933471,0.012002051969216084,10.957124885234643,0.5949476490846932
63.0,20.54901490854443,0.4777861687320373,0.011998614868653255,10.956664628976942,0.5949521252322862
64.0,20.552654934981987,0.4779527161830163,0.011995177874090665,10.95620435320535,0.5949563927486913
65.0,20.556295030993276,0.4781192966048047,0.011991740985338924,10.955744057984042,0.5949609923645242
66.0,20.55993519604604,0.4782859099558528,0.011988304202206068,10.955283743377269,0.5949663092186256
67.0,20.56357542960731,0.47845255619452925,0.011984867524497763,10.95482340944937,0.5949701885731834
68.0,20.567215731143445,0.478619235279138,0.01198143095201761,10.954363056264768,0.5949749798133163
69.0,20.570856100120118,0.47878594716790407,0.011977994484567569,10.953902683887971,0.5949792939575322
70.0,20.574496536002314,0.4789526918189866,0.011974558121948009,10.95344229238357,0.5949833657117253
71.0,20.57813703825434,0.4791194691904617,0.011971121863957998,10.95298188181624,0.5949874005073257
72.0,20.581777606339813,0.47928627924034384,0.011967685710395531,10.952521452250743,0.5949917375129564
73.0,20.585418239721673,0.4794531219265646,0.011964249661057545,10.95206100375192,0.5949959183279506
74.0,20.589058937862163,0.47961999720698656,0.011960813715740296,10.951600536384705,0.5950003053093943
75.0,20.592699700222855,0.47978690503940147,0.011957377874239259,10.951140050214105,0.5950060313767828
76.0,20.59634052626462,0.47995384538152414,0.011953942136349338,10.950679545305226,0.595011588997023
77.0,20.599981415447644,0.4801208181910004,0.011950506501865008,10.950219021723244,0.59501701561696
78.0,20.603622367231452,0.48028782342539805,0.011947070970580282,10.94975847953343,0.5950225260227465
79.0,20.60726338107485,0.48045486104221563,0.011943635542289015,10.949297918801136,0.5950280826526937
80.0,20.61090445643597,0.48062193099887857,0.011940200216784642,10.948837339591798,0.5950335209729188
81.0,20.614545592772263,0.4807890332527333,0.011936764993860583,10.94837674197094,0.5950390500778934
82.0,20.618186789540477,0.480956167761063,0.0119333298733101,10.947916126004165,0.5950446196743292
83.0,20.621828046196683,0.48112333448107064,0.011929894854926317,10.947455491757166,0.5950500683511205
84.0,20.625469362196263,0.4812905333698863,0.011926459938502481,10.946994839295721,0.5950554707410908
85.0,20.62911073699391,0.48145776438457194,0.011923025123831804,10.946534168685691,0.5950610501458528
86.0,20.63275217004362,0.4816250274821106,0.011919590410707582,10.94607347999302,0.5950665586416785
87.0,20.636393660798706,0.48179232261941546,0.011916155798923168,10.94561277328374,0.5950719633528262
88.0,20.64003520871179,0.48195964975332645,0.011912721288272176,10.945152048623969,0.5950774157208728
89.0,20.64367681323482,0.48212700884061105,0.01190928687854827,10.944691306079905,0.5950828166725436
90.0,20.64731847381902,0.48229439983795874,0.011905852569545327,10.944230545717836,0.595088158897718
91.0,20.650960189914954,0.4824618227019902,0.011902418361057482,10.943769767604135,0.5950935996849024
92.0,20.654601960972478,0.48262927738925376,0.011898984252879071,10.943308971805255,0.5950991578690324
93.0,20.658243786440767,0.48279676385622133,0.011895550244804702,10.94284815838774,0.5951046753052828
94.0,20.661885665768295,0.4829642820592948,0.01189211633662928,10.942387327418215,0.5951099312082757
95.0,20.665527598402853,0.4831318319548003,0.011888682528147955,10.941926478963392,0.5951149485637671
96.0,20.669169583791533,0.4832994134989916,0.011885248819156225,10.941465613090068,0.5951196694142896
97.0,20.672811621380745,0.4834670266480505,0.011881815209449859,10.941004729865126,0.5951241470004287
98.0,20.676453710616194,0.48363467135808563,0.01187838169882508,10.940543829355532,0.5951284627987629
99.0,20.680095850942894,0.483802347585127,0.011874948287078305,10.94008291162834,0.5951343177381075
100.0,20.683738041805174,0.4839700552851407,0.011871514974006406,10.939621976750685,0.5951398485806971
101.0,20.687380282646668,0.4841377944140131,0.011868081759406596,10.939161024789792,0.5951456042245808
102.0,20.691022572910303,0.48430556492755833,0.011864648643076481,10.938700055812971,0.5951515991706845
103.0,20.69466491203833,0.4844733667815215,0.011861215624813988,10.938239069887612,0.5951574498765245
104.0,20.698307299472294,0.48464119993156557,0.011857782704417558,10.937778067081195,0.5951630942165288
105.0,20.701949734653052,0.48480906433328985,0.011854349881685896,10.937317047461287,0.5951682219823977
106.0,20.705592217020758,0.484976959942216,0.01185091715641824,10.936856011095534,0.5951726717617442
107.0,20.709234746014875,0.4851448867137917,0.011847484528414142,10.936394958051673,0.5951764478043663
108.0,20.712877321074178,0.48531284460339563,0.011844051997473647,10.935933888397525,0.5951794670158083
109.0,20.716519941636726,0.48548083356632704,0.01184061956339723,10.935472802200993,0.5951831399212995
110.0,20.720162607139912,0.4856488535578161,0.011837187225985703,10.935011699530069,0.5951884196698789
111.0,20.72380531702041,0.48581690453301923,0.011833754985040482,10.93455058045283,0.5951934559951405
112.0,20.727448070714193,0.48598498644701876,0.01183032284036324,10.93408944503744,0.5951982268828991
113.0,20.731090867656555,0.48615309925482825,0.011826890791756226,10.933628293352143,0.5952029422193938
114.0,20.734733707282093,0.48632124291138074,0.011823458839022123,10.933167125465275,0.5952079034822542
115.0,20.73837658902468,0.48648941737153945,0.01182002698196403,10.932705941445251,0.5952133910251205
116.0,20.74201951231752,0.48665762259009476,0.01181659522038554,10.932244741360579,0.5952193278760685
117.0,20.74566247659311,0.48682585852176685,0.011813163554090665,10.931783525279844,0.5952253046423837
118.0,20.74930548128325,0.48699412512119333,0.011809731982883964,10.931322293271725,0.595231267870735
119.0,20.752948525819033,0.48716242234295093,0.01180630050657042,10.93086104540498,0.5952372132509055
120.0,20.756591609630853,0.4873307501415352,0.01180286912495549,10.930399781748454,0.5952430963684804
121.0,20.760234732148422,0.4874991084713682,0.011799437837845126,10.929938502371082,0.5952492537841982
122.0,20.763877892800732,0.48766749728680314,0.011796006645045716,10.929477207341877,0.5952554761797201
123.0,20.7675210910161,0.48783591654211783,0.011792575546364198,10.929015896729945,0.5952615969840941
124.0,20.771164326222113,0.4880043661915164,0.011789144541607989,10.928554570604474,0.5952673671509138
125.0,20.774807597845673,0.4881728461891319,0.01178571363058495,10.928093229034735,0.5952725355436991
126.0,20.77845090531298,0.48834135648901955,0.011782282813103463,10.92763187209009,0.5952773312811335
127.0,20.78209424804954,0.48850989704516934,0.011778852088972452,10.927170499839985,0.5952820607634399
128.0,20.785737625480152,0.4886784678114883,0.011775421458001261,10.926709112353947,0.595286846309229
129.0,20.789381037028917,0.4888470687418174,0.011771990919999826,10.926247709701597,0.5952915983411384
130.0,20.793024482119222,0.48901569978992593,0.011768560474778495,10.925786291952633,0.5952963714874874
131.0,20.79666796017377,0.4891843609094997,0.01176513012214817,10.925324859176843,0.5953010889260532
132.0,20.800311470614552,0.48935305205416174,0.011761699861920293,10.924863411444104,0.5953055966385596
133.0,20.803955012862847,0.48952177317745954,0.011758269693906831,10.924401948824372,0.5953098694844847
134.0,20.807598586339257,0.4896905242328646,0.011754839617920164,10.923940471387692,0.5953152783276173
135.0,20.811242190463663,0.489859305173774,0.011751409633773306,10.923478979204193,0.5953211113849431
136.0,20.81488582465525,0.4900281159535221,0.011747979741279741,10.923017472344094,0.5953267768227208
137.0,20.818529488332494,0.4901969565253565,0.011744549940253531,10.922555950877696,0.5953324691095224
138.0,20.82217318091316,0.49036582684246044,0.011741120230509206,10.922094414875385,0.595337899471425
139.0,20.82581690181433,0.4905347268579423,0.011737690611861853,10.921632864407636,0.5953431368118297
140.0,20.829460650452376,0.49070365652483344,0.011734261084127125,10.921171299545007,0.5953482933964739
141.0,20.83310442624294,0.49087261579609587,0.011730831647121182,10.920709720358142,0.5953533965704517
142.0,20.836748228601007,0.49104160462462415,0.011727402300660748,10.920248126917773,0.5953587490097235
143.0,20.84039205694081,0.49121062296322576,0.011723973044563065,10.919786519294716,0.5953639104755594
144.0,20.84403591067591,0.49137967076464584,0.011720543878645986,10.919324897559871,0.5953688597427431
145.0,20.847679789219143,0.49154874798155346,0.011717114802727848,10.918863261784228,0.5953738603426338
146.0,20.85132369198265,0.4917178545665463,0.011713685816627606,10.91840161203886,0.595378522549042
147.0,20.854967618377863,0.49188699047214346,0.011710256920164768,10.917939948394924,0.5953859817906549
148.0,20.8586115678155,0.4920561556507983,0.011706828113159363,10.917478270923668,0.595391730591752
149.0,20.86225553970559,0.49222535005488793,0.011703399395432051,10.917016579696423,0.5953969982717717
150.0,20.865899533457444,0.4923945736367142,0.011699970766804032,10.916554874784602,0.5954021772536513
151.0,20.869543548479676,0.4925638263485104,0.011696542227097127,10.91609315625971,0.5954073344819
152.0,20.873187584180165,0.49273310814243193,0.011693113776133681,10.915631424193334,0.5954124054120746
153.0,20.87683163996612,0.4929024189705648,0.011689685413736672,10.915169678657149,0.5954173855336237
154.0,20.880475715244025,0.49307175878492343,0.011686257139729667,10.914707919722915,0.5954222182508734
155.0,20.88411980941965,0.4932411275374429,0.011682828953936884,10.914246147462476,0.5954268852363421
156.0,20.88776392189807,0.49341052517999345,0.011679400856183037,10.913784361947764,0.5954315748090266
157.0,20.891408052083648,0.4935799516643648,0.011675972846293544,10.913322563250798,0.5954361414637795
158.0,20.895052199380032,0.4937494069422794,0.011672544924094383,10.912860751443677,0.5954405000807304
159.0,20.898696363190172,0.49391889096538294,0.01166911708941224,10.912398926598593,0.5954449388763842
160.0,20.9023405429163,0.49408840368525136,0.0116656893420743,10.91193708878782,0.5954495560113865
161.0,20.90598473795994,0.49425794505338666,0.011662261681908547,10.911475238083716,0.5954541458798379
162.0,20.909628947721917,0.4944275150212172,0.011658834108743485,10.911013374558731,0.5954586111881423
163.0,20.913273171602334,0.4945971135400972,0.011655406622408326,10.910551498285393,0.5954629923451423
164.0,20.916917409000597,0.4947667405613087,0.011651979222732943,10.910089609336325,0.595467278645711
165.0,20.920561659315382,0.49493639603606754,0.011648551909547823,10.909627707784225,0.595471424994464
166.0,20.924205921944687,0.4951060799155032,0.011645124682684218,10.909165793701884,0.595475705936478
167.0,20.927850196285767,0.495275792150688,0.011641697541974002,10.90870386716218,0.5954798352409542
168.0,20.931494481735182,0.4954455326926077,0.011638270487249736,10.908241928238072,0.5954838973544084
169.0,20.93513877768878,0.49561530149218297,0.01163484351834477,10.907779977002605,0.5954877276158385
170.0,20.9387830835417,0.4957850985002623,0.011631416635093051,10.907318013528915,0.5954913720666684
171.0,20.942427398688366,0.4959549236676179,0.011627989837329322,10.906856037890218,0.5954948011154978
172.0,20.9460717225225,0.4961247769449478,0.011624563124889062,10.90639405015982,0.595498050704773
173.0,20.9497160544371,0.49629465828288294,0.011621136497608485,10.905932050411108,0.5955018938676558
174.0,20.95336039382445,0.49646456763197716,0.0116177099553245,10.905470038717562,0.5955054934115187
175.0,20.957004740076144,0.4966345049427152,0.011614283497874902,10.90500801515274,0.5955085458724357
176.0,20.960649092583044,0.49680447016550744,0.011610857125098174,10.904545979790292,0.5955114691527817
177.0,20.964293450735294,0.49697446325068606,0.011607430836833663,10.904083932703948,0.595514435365561
178.0,20.96793781392236,0.49714448414852047,0.01160400463269672,10.903621873967527,0.5955176257127046
179.0,20.97158218153296,0.49731453280920074,0.011600578511952871,10.903159803654923,0.5955209965723777
180.0,20.975226552955103,0.4974846091828468,0.011597152474460127,10.902697721840115,0.5955244096283415
181.0,20.978870927576114,0.49765471321950566,0.011593726520077827,10.90223562859717,0.5955279754294882
182.0,20.982515304782574,0.4978248448691533,0.011590300648666414,10.90177352400024,0.5955315510375777
183.0,20.98615968396036,0.49799500408168823,0.01158687486008773,10.901311408123558,0.5955355887309224
184.0,20.98980406449464,0.49816519080694427,0.011583449154204796,10.900849281041452,0.5955395646650746
185.0,20.993448445769864,0.4983354049946738,0.011580023530881934,10.90038714282833,0.595543419051196
186.0,20.997092827169766,0.4985056465945639,0.011576597989984568,10.899924993558685,0.5955473555595866
187.0,21.000737208077382,0.4986759155562243,0.011573172531379567,10.899462833307098,0.5955512391949301
188.0,21.00438158787501,0.49884621182919675,0.01156974715493486,10.899000662148232,0.5955554939397021
189.0,21.00802596594425,0.4990165353629466,0.011566321860519741,10.898538480156843,0.5955595476052088
190.0,21.011670341665987,0.4991868861068713,0.011562896648004655,10.898076287407763,0.595563325410378
191.0,21.01531471442037,0.4993572640102893,0.011559471517261407,10.897614083975919,0.5955668725769183
192.0,21.018959083586868,0.49952766902245377,0.011556046468162986,10.897151869936316,0.5955705351918149
193.0,21.022603448544213,0.49969810109254226,0.01155262150058361,10.89668964536405,0.5955742560221654
