k,PSNR,SSIM,mse,Log-Gradient,Angle
0.0,20.32042963949219,0.4673896377258154,0.0,10.985552020335119,0.5931177018594069
1.0,20.323518395137494,0.46752768035660397,0.010209988963644286,10.985157856068895,0.5946224781516769
2.0,20.327126986256307,0.46769080635101984,0.012079349894750182,10.98470197155691,0.5946367219309188
3.0,20.330758173443822,0.4678550917150708,0.012185271678157486,10.984243451194907,0.594640259277153
4.0,20.334390858437793,0.46801948515302366,0.012192067379132416,10.98378474511302,0.5946449986235224
5.0,20.338023432246505,0.46818390591480474,0.012189246521089282,10.983326041225983,0.5946495949552283
6.0,20.341655679581624,0.4683483429838744,0.012184802752562045,10.982867366231954,0.5946538149893957
7.0,20.345287556313153,0.4685127941310773,0.012179954259231397,10.982408726215542,0.5946580584803803
8.0,20.34891905133226,0.4686772587434061,0.012174978590668642,10.981950123170826,0.594661179487974
9.0,20.352550161386613,0.46884173660632184,0.012169964195220005,10.981491557769612,0.5946652674032439
10.0,20.35618088503259,0.4690062276144304,0.012164934907798727,10.981033030333466,0.5946705799224464
11.0,20.359811221281422,0.4691707316967116,0.012159896553203615,10.980574541098768,0.5946756851608271
12.0,20.363441169408645,0.46933524878933786,0.012154854662686933,10.98011609023588,0.5946807293162142
13.0,20.367070728611306,0.46949977882424104,0.012149808057455417,10.979657677910483,0.594685727304339
14.0,20.370699898250045,0.4696643217424851,0.012144759404361468,10.97919930424112,0.5946907608134991
15.0,20.374328677683884,0.46982887748564633,0.012139709823162754,10.978740969337238,0.5946958754395978
16.0,20.377957066316704,0.46999344599782794,0.012134659667694832,10.978282673305353,0.5947011020574053
17.0,20.38158506355829,0.4701580272236952,0.012129609932968107,10.977824416241099,0.5947063256702892
18.0,20.385212668822593,0.47032262110829426,0.012124560984867246,10.977366198234552,0.5947116336276829
19.0,20.38883988152644,0.47048722759694145,0.012119512935827755,10.976908019372685,0.5947169290780504
20.0,20.392466701088715,0.47065184663512766,0.012114465868812029,10.976449879740201,0.5947222648982854
21.0,20.39609312692972,0.47081647816847155,0.012109419845576598,10.975991779420127,0.5947275709389497
22.0,20.39971915847076,0.4709811221426783,0.01210437491247984,10.975533718494244,0.5947328611119472
23.0,20.403344795133826,0.4711457785034899,0.012099331104598805,10.975075697043401,0.5947381583415718
24.0,20.406970036341356,0.4713104471966892,0.012094288448673666,10.974617715147744,0.5947434632552732
25.0,20.41059488151612,0.47147512816806936,0.012089246965231887,10.974159772886889,0.5947487652633312
26.0,20.41421933008104,0.47163982136341903,0.012084206670133628,10.973701870340047,0.5947540750909959
27.0,20.417843381459136,0.4718045267285221,0.012079167575705438,10.973244007586125,0.5947593733628408
28.0,20.421467035073455,0.47196924420914743,0.01207412969157812,10.972786184703791,0.5947647181674912
29.0,20.425090290347022,0.4721339737510486,0.012069093025311353,10.972328401771536,0.5947700469172806
30.0,20.428713146702773,0.4722987152999492,0.012064057582862157,10.971870658867719,0.5947753993484571
31.0,20.43233560356358,0.47246346880155005,0.012059023368939324,10.971412956070592,0.5947807586447069
32.0,20.43595766035218,0.4726282342015251,0.012053990387272931,10.970955293458333,0.5947860632817853
33.0,20.439579316491194,0.47279301144551483,0.012048958640821025,10.970497671109063,0.5947913717623745
34.0,20.44320057140307,0.47295780047913355,0.012043928131929072,10.970040089100864,0.5947966993752527
35.0,20.446821424510134,0.47312260124795613,0.012038898862453495,10.969582547511791,0.5948020066973105
36.0,20.450441875234517,0.47328741369753263,0.012033870833858274,10.969125046419881,0.5948072215291854
37.0,20.454061922998207,0.4734522377733726,0.01202884404729072,10.968667585903164,0.594812409519223
38.0,20.457681567222995,0.47361707342095655,0.012023818503641375,10.968210166039665,0.5948175772160837
39.0,20.461300807330502,0.4737819205857264,0.012018794203591504,10.967752786907415,0.5948228329123507
40.0,20.46491964274217,0.47394677921309425,0.01201377114765107,10.96729544858445,0.594828062937888
41.0,20.46853807287926,0.47411164924843524,0.012008749336189051,10.966838151148819,0.5948334038137001
42.0,20.472156097162838,0.4742765306370866,0.012003728769458061,10.966380894678585,0.5948388981256404
43.0,20.475773715013787,0.47444142332435724,0.011998709447614218,10.965923679251823,0.5948444528291116
44.0,20.47939092585281,0.47460632725551405,0.011993691370733204,10.965466504946631,0.5948500222962992
45.0,20.483007729100414,0.4747712423757924,0.011988674538823657,10.965009371841127,0.5948556318274757
46.0,20.48662412417692,0.4749361686303934,0.01198365895183788,10.964552280013443,0.5948611939070203
47.0,20.49024011050246,0.4751011059644781,0.011978644609680851,10.96409522954174,0.5948668671405121
48.0,20.493855687496968,0.4752660543231821,0.011973631499021998,10.963638220504187,0.5948726014039286
49.0,20.497470854580207,0.4754310136515949,0.011968619414727969,10.963181252978758,0.5948783306183709
50.0,20.50108561117173,0.4755959838947768,0.011963608573206901,10.96272432704367,0.5948840459139236
51.0,20.504699956690914,0.47576096499775544,0.011958598974420141,10.962267442777158,0.5948896486852832
52.0,20.508313890556945,0.4759259569055149,0.011953590618307714,10.961810600257486,0.5948951516039834
53.0,20.5119274121888,0.47609095956301334,0.01194858350479182,10.961353799562943,0.5949006505075765
54.0,20.515540521005295,0.4762559729151708,0.011943577633779623,10.960897040771846,0.5949062817195754
55.0,20.519153216425057,0.47642099690687045,0.011938573005165687,10.960440323962532,0.5949117996181668
56.0,20.52276549786651,0.476586031482964,0.011933569618833729,10.95998364921337,0.5949172047875361
57.0,20.526377364747898,0.4767510765882667,0.011928567474658326,10.959527016602756,0.5949225508050547
58.0,20.529988816487275,0.4769161321675562,0.011923566572506334,10.959070426209108,0.5949281002388215
59.0,20.533599852502526,0.47708119816558464,0.011918566912237848,10.95861387811087,0.5949342698918593
60.0,20.53721047221133,0.47724627452706186,0.011913568493707312,10.958157372386522,0.5949376519819439
61.0,20.54082067503119,0.47741136119666644,0.01190857131676438,10.957700909114557,0.594941880928753
62.0,20.544430460379424,0.4775764581190409,0.011903575381254533,10.957244488373506,0.594946428909955
63.0,20.548039827673165,0.4777415652387951,0.011898580687019763,10.956788110241922,0.5949508996515281
64.0,20.55164877632937,0.47790668250050455,0.011893587233899086,10.956331774798384,0.5949551831788181
65.0,20.55525730576481,0.47807180984871184,0.011888595021728962,10.955875482121503,0.5949596160810261
66.0,20.558865415396053,0.47823694722792515,0.01188360405034382,10.955419232289909,0.5949641576211768
67.0,20.562473104639526,0.47840209458261707,0.01187861431957624,10.954963025382265,0.5949677992641701
68.0,20.566080372911436,0.4785672518572273,0.01187362582925744,10.954506861477256,0.5949735448286094
69.0,20.56968721962783,0.47873241899616453,0.01186863857921739,10.9540507406536,0.5949778844481044
70.0,20.573293644204583,0.47889759594379844,0.01186365256928516,10.953594662990033,0.5949820004712786
71.0,20.57689964605736,0.4790627826444715,0.011858667799289072,10.953138628565325,0.5949858783158121
72.0,20.580505224601673,0.47922797904248826,0.011853684269056829,10.952682637458269,0.5949901880509277
73.0,20.584110379252856,0.4793931850821222,0.011848701978415845,10.952226689747684,0.5949943863002115
74.0,20.58771510942604,0.47955840070761396,0.011843720927193178,10.951770785512418,0.5949985732805251
75.0,20.591319414536216,0.4797236258631665,0.011838741115215875,10.951314924831342,0.5950038226002375
76.0,20.59492329399816,0.47988886049295604,0.011833762542310897,10.950859107783355,0.5950093775787705
77.0,20.598526747226504,0.4800541045411229,0.011828785208305291,10.950403334447381,0.5950147630540055
78.0,20.60212977363568,0.4802193579517735,0.011823809113026319,10.949947604902373,0.5950202139405731
79.0,20.605732372639967,0.4803846206689843,0.01181883425630152,10.949491919227308,0.5950256870525383
80.0,20.609334543653457,0.4805498926367968,0.011813860637958707,10.949036277501184,0.5950311144496035
81.0,20.61293628609007,0.4807151737992205,0.011808888257826127,10.948580679803033,0.595036527396386
82.0,20.616537599363546,0.48088046410023105,0.011803917115732495,10.94812512621191,0.5950420294592117
83.0,20.62013848288746,0.4810457634837777,0.011798947211506958,10.947669616806891,0.5950474570829241
84.0,20.623738936075227,0.48121107189376894,0.011793978544979329,10.947214151667083,0.5950528163568208
85.0,20.62733895834006,0.4813763892740841,0.011789011115979927,10.946758730871618,0.5950582452309278
86.0,20.63093854909504,0.481541715568574,0.011784044924339673,10.946303354499648,0.5950637423228136
87.0,20.63453770775304,0.4817070507210551,0.011779079969890284,10.945848022630358,0.5950691170427787
88.0,20.63813643372679,0.4818723946753103,0.01177411625246408,10.945392735342951,0.5950744566866276
89.0,20.641734726428844,0.48203774737508964,0.011769153771894133,10.94493749271666,0.59507985655428
90.0,20.645332585271575,0.48220310876411504,0.011764192528014234,10.94448229483074,0.5950851243260155
91.0,20.648930009667197,0.48236847878607964,0.011759232520659002,10.944027141764474,0.5950904086549943
92.0,20.652526999027767,0.482533857384633,0.011754273749663802,10.943572033597166,0.595095893493204
93.0,20.65612355276517,0.4826992445034058,0.011749316214864844,10.943116970408145,0.59510137947204
94.0,20.659719670291107,0.48286464008599067,0.01174435991609914,10.942661952276769,0.5951067122181487
95.0,20.66331535101714,0.48303004407595046,0.011739404853204597,10.942206979282416,0.5951118182793149
96.0,20.666910594354654,0.4831954564168172,0.011734451026019973,10.941752051504487,0.5951166634952781
97.0,20.67050539971486,0.4833608770520923,0.011729498434384852,10.941297169022414,0.5951211811132975
98.0,20.67409976650882,0.4835263059252424,0.01172454707813975,10.940842331915647,0.5951255890523783
99.0,20.67769369414743,0.48369174297970763,0.011719596957126058,10.940387540263663,0.5951303432333102
100.0,20.681287182041416,0.48385718815889994,0.011714648071186122,10.939932794145962,0.5951360296245065
101.0,20.68488022960135,0.48402264140618945,0.011709700420163165,10.939478093642068,0.5951414168046324
102.0,20.688472836237647,0.48418810266492657,0.011704754003901356,10.939023438831526,0.595147269432641
103.0,20.692065001360547,0.4843535718784273,0.011699808822245795,10.93856882979391,0.5951531380032417
104.0,20.695656724380136,0.4845190489899714,0.01169486487504252,10.938114266608816,0.595158887560846
105.0,20.699248004706355,0.48468453394282246,0.011689922162138534,10.93765974935586,0.5951643504525126
106.0,20.702838841748957,0.4848500266801983,0.011684980683381785,10.937205278114682,0.5951692407288943
107.0,20.706429234917564,0.48501552714529655,0.011680040438621213,10.93675085296495,0.5951734709561908
108.0,20.710019183621622,0.4851810352812785,0.011675101427706657,10.936296473986353,0.5951770153434816
109.0,20.71360868727043,0.48534655103128066,0.011670163650488983,10.935842141258599,0.5951799276120132
110.0,20.717197745273133,0.48551207433840743,0.011665227106820069,10.935387854861421,0.5951839901736241
111.0,20.720786357038705,0.48567760514573116,0.011660291796552714,10.93493361487458,0.5951891598210545
112.0,20.72437452197599,0.485843143396302,0.011655357719540753,10.934479421377853,0.5951940537707558
113.0,20.727962239493642,0.4860086890331284,0.011650424875638912,10.934025274451042,0.5951987247626215
114.0,20.731549509000192,0.48617424199919784,0.011645493264703056,10.93357117417397,0.5952033736736945
115.0,20.735136329904016,0.4863398022374701,0.011640562886589956,10.933117120626488,0.5952082792557055
116.0,20.738722701613312,0.48650536969086744,0.011635633741157421,10.932663113888461,0.5952137211632706
117.0,20.742308623536154,0.4866709443022886,0.011630705828264214,10.932209154039784,0.5952195948819746
118.0,20.745894095080445,0.4868365260146037,0.011625779147770195,10.931755241160369,0.5952254664809917
119.0,20.749479115653948,0.4870021147706498,0.011620853699536134,10.93130137533015,0.5952313325187847
120.0,20.75306368466427,0.4871677105132392,0.01161592948342389,10.930847556629088,0.5952371777107646
121.0,20.756647801518866,0.487333313185151,0.011611006499296353,10.93039378513716,0.5952429620169659
122.0,20.760231465625058,0.4874989227291393,0.01160608474701733,10.929940060934365,0.5952490105816484
123.0,20.763814676390005,0.48766453908792945,0.011601164226451747,10.929486384100727,0.595255133471977
124.0,20.76739743322072,0.487830162204213,0.011596244937465508,10.929032754716292,0.5952611603070491
125.0,20.770979735524065,0.4879957920206606,0.011591326879925552,10.928579172861122,0.5952668610518033
126.0,20.774561582706763,0.48816142847990873,0.011586410053699864,10.928125638615304,0.5952719885814798
127.0,20.778142974175395,0.4883270715245683,0.011581494458657396,10.927672152058946,0.5952766941298692
128.0,20.781723909336375,0.4884927210972194,0.01157658009466824,10.927218713272175,0.5952813516710945
129.0,20.785304387596003,0.48865837714042,0.011571666961603423,10.926765322335143,0.5952860403947334
130.0,20.78888440836042,0.48882403959669257,0.011566755059335064,10.92631197932802,0.5952907269342461
131.0,20.792463971035605,0.4889897084085358,0.011561844387736294,10.925858684330993,0.5952953818143252
132.0,20.79604307502743,0.4891553835184208,0.011556934946681308,10.92540543742428,0.5953000569771117
133.0,20.7996217197416,0.48932106486878757,0.011552026736045332,10.924952238688105,0.5953045185130935
134.0,20.80319990458369,0.4894867524020547,0.011547119755704638,10.924499088202726,0.5953088020402407
135.0,20.806777628959125,0.4896524460606056,0.01154221400553651,10.924045986048414,0.5953137136342098
136.0,20.81035489227319,0.48981814578680316,0.011537309485419372,10.923592932305462,0.5953194183012306
137.0,20.81393169393104,0.48998385152297835,0.011532406195232601,10.923139927054182,0.5953249433942913
138.0,20.817508033337685,0.49014956321143477,0.011527504134856667,10.922686970374906,0.5953306142408236
139.0,20.821083909898,0.49031528079445447,0.011522603304173122,10.922234062347988,0.5953360253335619
140.0,20.82465932301671,0.49048100421428736,0.011517703703064543,10.921781203053797,0.595341198451922
141.0,20.82823427209842,0.49064673341315607,0.0115128053314146,10.921328392572729,0.5953463016500647
142.0,20.831808756547584,0.49081246833325826,0.011507908189107947,10.920875630985194,0.5953512305297531
143.0,20.835382775768544,0.4909782089167664,0.011503012276030417,10.920422918371619,0.5953564624349151
144.0,20.838956329165462,0.49114395510582226,0.011498117592068825,10.919970254812458,0.5953616420489658
145.0,20.84252941614242,0.4913097068425465,0.01149322413711109,10.919517640388179,0.5953665861481274
146.0,20.846102036103318,0.4914754640690253,0.011488331911046212,10.919065075179269,0.5953715023147085
147.0,20.84967418845196,0.49164122672732774,0.011483440913764218,10.918612559266235,0.5953762160475415
148.0,20.853245872591984,0.49180699475948986,0.011478551145156297,10.918160092729604,0.5953817555887999
149.0,20.85681708792693,0.4919727681075246,0.011473662605114647,10.917707675649918,0.5953886484181493
150.0,20.86038783386018,0.4921385467134198,0.0114687752935326,10.917255308107743,0.5953939720132309
151.0,20.863958109794996,0.49230433051913564,0.011463889210304511,10.916802990183658,0.5953990340725569
152.0,20.867527915134513,0.49247011946660274,0.01145900435532593,10.916350721958265,0.5954040867267535
153.0,20.871097249281725,0.49263591349773267,0.011454120728493397,10.91589850351218,0.5954091157794991
154.0,20.87466611163951,0.4928017125544086,0.011449238329704636,10.91544633492604,0.595414034566898
155.0,20.87823450161061,0.49296751657848875,0.011444357158858408,10.9149942162805,0.5954188701203542
156.0,20.881802418597644,0.49313332551180417,0.01143947721585464,10.914542147656231,0.5954235255222423
157.0,20.885369862003103,0.49329913929616137,0.011434598500594277,10.914090129133923,0.595428081711967
158.0,20.888936831229348,0.49346495787334393,0.01142972101297951,10.913638160794285,0.5954326346831248
159.0,20.892503325678618,0.49363078118510456,0.011424844752913544,10.91318624271804,0.59543705308088
160.0,20.89606934475303,0.4937966091731809,0.01141996972030079,10.912734374985934,0.5954412982981572
161.0,20.89963488785457,0.49396244177927295,0.011415095915046693,10.912282557678724,0.5954456728403182
162.0,20.90319995438511,0.4941282789450665,0.011410223337057919,10.911830790877188,0.5954502228629158
163.0,20.90676454374638,0.494294120612218,0.011405351986242223,10.911379074662118,0.5954546697659807
164.0,20.91032865534001,0.4944599667223553,0.011400481862508565,10.910927409114331,0.5954590231678921
165.0,20.9138922885675,0.49462581721709364,0.011395612965766974,10.910475794314651,0.5954632972310976
166.0,20.91745544283022,0.4947916720380121,0.011390745295928715,10.910024230343923,0.5954674659667608
167.0,20.921018117529442,0.49495753112666874,0.011385878852906102,10.909572717283009,0.5954715120664579
168.0,20.924580312066293,0.49512339442460035,0.011381013636612819,10.909121255212789,0.5954756865157532
169.0,20.928142025841794,0.49528926187331734,0.011376149646963556,10.908669844214154,0.5954797171136946
170.0,20.93170325825685,0.4954551334143078,0.011371286883874229,10.908218484368017,0.5954836787727167
171.0,20.935264008712235,0.49562100898903205,0.011366425347262019,10.907767175755305,0.595487422567426
172.0,20.938824276608628,0.4957868885389331,0.01136156503704519,10.907315918456963,0.5954909690215374
173.0,20.94238406134658,0.4959527720054215,0.011356705953143299,10.906864712553945,0.5954943026329501
174.0,20.945943362326513,0.4961186593298923,0.011351848095477122,10.906413558127229,0.5954974770685288
175.0,20.949502178948755,0.49628455045371117,0.011346991463968618,10.905962455257805,0.5955011905465083
176.0,20.95306051061352,0.4964504453182272,0.011342136058541017,10.90551140402668,0.5955047989501895
177.0,20.956618356720877,0.496616343864757,0.01133728187911879,10.905060404514874,0.5955078432111416
178.0,20.960175716670825,0.49678224603460114,0.011332428925627653,10.904609456803424,0.5955107205509148
179.0,20.963732589863223,0.4969481517690349,0.01132757719798248,10.904158560973382,0.5955136261083714
180.0,20.967288975697834,0.4971140610093157,0.011322726695318084,10.903707717105807,0.5955166185915876
181.0,20.970844873574293,0.49727997369666554,0.011317877417579518,10.903256925281768,0.5955199399743936
182.0,20.97440028289214,0.49744588977229404,0.01131302936471356,10.902806185582357,0.5955231949272713
183.0,20.9779552030508,0.4976118091773876,0.01130818253666859,10.902355498088669,0.5955266231027269
184.0,20.98150963344959,0.4977777318531082,0.0113033369333949,10.901904862881825,0.5955300720085032
185.0,20.985063573487714,0.4979436577405895,0.011298492554844247,10.901454280042955,0.5955338356122152
186.0,20.98861702256427,0.4981095867809519,0.011293649400970196,10.901003749653203,0.5955377522645354
187.0,20.992169980078266,0.4982755189152895,0.011288807471727967,10.900553271793727,0.5955415421914804
188.0,20.995722445428573,0.4984414540846784,0.011283966767074443,10.900102846545703,0.5955453376905565
189.0,20.99927441801398,0.498607392230163,0.011279127286968168,10.899652473990319,0.5955491568312564
190.0,21.002825897233166,0.4987733332927779,0.011274289031369442,10.899202154208773,0.595553091618461
191.0,21.006376882484705,0.49893927721352677,0.011269452000240099,10.89875188728228,0.5955571724690017
192.0,21.00992737316706,0.4991052239333942,0.011264616193543735,10.898301673292073,0.5955610128398233
193.0,21.01347736867861,0.4992711733933442,0.011259781611245585,10.897851512319392,0.5955645862711144
