k,PSNR,SSIM,mse,Log-Gradient,Angle
0.0,20.32042963949219,0.4673896377258154,0.0,10.985552020335119,0.5931177018594069
1.0,20.323518301562377,0.46752767617420693,0.01020967968250497,10.985157868010724,0.5946224779569697
2.0,20.327126689769802,0.4676907930416258,0.012078678706958796,10.984702009255244,0.5946367211071267
3.0,20.330757564008657,0.46785506429625334,0.012184232782518166,10.984243528547943,0.5946402581564633
4.0,20.334389825960436,0.46801943863668044,0.012190659862938342,10.983784876027443,0.5946449966231561
5.0,20.338021866625226,0.46818383530957136,0.012187470451534477,10.98332623961131,0.5946495918167195
6.0,20.34165347071296,0.4683482432954529,0.012182658379920584,10.982867645999722,0.5946538105933522
7.0,20.345284594093293,0.46851266036231914,0.012177441877618133,10.982409101279105,0.5946580522336085
8.0,20.34891522565749,0.4686770858943326,0.01217209850873044,10.981950607445278,0.5946611704055776
9.0,20.352545362153474,0.46884151967414156,0.012166716727205358,10.981492165171748,0.5946652591777178
10.0,20.356175002138066,0.46900596159354785,0.012161320369319507,10.98103377478176,0.5946705694764581
11.0,20.35980414462304,0.4691704115787398,0.01215591526044173,10.98057543651336,0.59467567235787
12.0,20.363432788884595,0.46933486956310055,0.012150506932383929,10.980117150538545,0.5946807143989707
13.0,20.367060934120587,0.469499335475794,0.012145094206272775,10.97965891702462,0.5946857100606507
14.0,20.370688579692565,0.4696638092551187,0.012139679749137829,10.979200736091736,0.5946907413327461
15.0,20.374315724960592,0.46982829083989364,0.012134264680907988,10.978742607850927,0.5946958534071926
16.0,20.377942369329702,0.4699927801714853,0.012128849355396322,10.978284532410292,0.5947010771842709
17.0,20.381568512210933,0.4701572771918145,0.012123434767802648,10.977826509867022,0.5947062981848388
18.0,20.38519415301964,0.47032178184320705,0.012118021283950495,10.977368540312737,0.5947116026735974
19.0,20.388819291174144,0.4704862940682573,0.012112609016224631,10.976910623835943,0.5947168950887927
20.0,20.392443926094955,0.47065081380975643,0.01210719804753252,10.97645276052286,0.5947222273606536
21.0,20.396068057204108,0.470815341010623,0.012101788439572537,10.975994950458018,0.594727529980977
22.0,20.39969168392477,0.47097987561386995,0.012096380238642502,10.975537193724684,0.5947328172204853
23.0,20.40331480568089,0.47114441756257114,0.012090973479757234,10.975079490405179,0.5947381107619008
24.0,20.406937421897013,0.4713089667998356,0.01208556818959326,10.97462184058111,0.5947434115730251
25.0,20.410559531998107,0.4714735232687901,0.01208016438861342,10.974164244333535,0.594748709280286
26.0,20.41418113540942,0.4716380869125838,0.012074762092612639,10.973706701743097,0.5947540150804165
27.0,20.417802231556426,0.4718026576743581,0.012069361313851442,10.973249212890117,0.5947593102018274
28.0,20.42142281986472,0.4719672354972549,0.012063962061894348,10.972791777854667,0.594764649494284
29.0,20.425042899759998,0.47213182032440093,0.012058564344234385,10.97233439671662,0.5947699738091231
30.0,20.428662470668023,0.47229641209890977,0.012053168166761715,10.97187706955571,0.5947753203548193
31.0,20.432281532014557,0.47246101076388713,0.012047773534118077,10.971419796451546,0.5947806755012585
32.0,20.435900083225384,0.47262561626240923,0.012042380449966441,10.970962577483647,0.5947859744628385
33.0,20.439518123726266,0.47279022853753977,0.012036988917197606,10.970505412731464,0.5947912783501467
34.0,20.44313565294294,0.4729548475323136,0.012031598938089867,10.970048302274396,0.5947965991002547
35.0,20.44675267030111,0.47311947318975306,0.012026210514432312,10.969591246191792,0.5948019026004601
36.0,20.45036917522641,0.4732841054528456,0.01202082364762174,10.969134244562978,0.5948071119657617
37.0,20.453985167144463,0.4734487442645679,0.012015438338738239,10.96867729746725,0.5948122962921123
38.0,20.457600645480817,0.4736133895678602,0.01201005458860521,10.968220404983896,0.5948174533436066
39.0,20.461215609660947,0.47377804130564716,0.01200467239783674,10.967763567192181,0.5948227058369014
40.0,20.464830059110298,0.47394269942082273,0.011999291766875766,10.967306784171372,0.5948279291998974
41.0,20.46844399325421,0.4741073638562579,0.01199391269602421,10.966850056000728,0.5948332554566848
42.0,20.47205741151799,0.4742720345548006,0.011988535185467856,10.966393382759508,0.5948387427153649
43.0,20.475670313326873,0.4744367114592731,0.01198315923529593,10.965936764526973,0.5948442877102383
44.0,20.47928269810601,0.4746013945124701,0.011977784845517382,10.965480201382384,0.5948498485482979
45.0,20.482894565280503,0.47476608365716405,0.011972412016074104,10.965023693405016,0.594855451517738
46.0,20.486505914275376,0.4749307788360985,0.011967040746851879,10.964567240674137,0.5948610039105996
47.0,20.49011674451559,0.47509547999199314,0.011961671037689142,10.964110843269035,0.5948666656630743
48.0,20.493727055426017,0.47526018706754725,0.011956302874870334,10.963654501268982,0.5948723912160295
49.0,20.49733684643149,0.4754249000054293,0.011950936053630408,10.963198214753051,0.5948781103145725
50.0,20.500946116956754,0.47558961874828426,0.011945570790195124,10.962741983800537,0.5948838206619611
51.0,20.50455486642649,0.47575434323873195,0.011940207084459706,10.962285808490739,0.5948894188784585
52.0,20.508163094265303,0.475919073419367,0.0119348449362981,10.96182968890297,0.5948949170420305
53.0,20.511770799897736,0.4760838092327637,0.011929484345566623,10.961373625116556,0.5949003988698549
54.0,20.515377982748273,0.4762485506214642,0.011924125312106633,10.96091761721083,0.5949060216525112
55.0,20.518984642241314,0.47641329752799066,0.011918767835746904,10.960461665265138,0.5949115373328515
56.0,20.52259077780122,0.47657804989484026,0.01191341191630551,10.960005769358839,0.5949169371615488
57.0,20.526196388852256,0.4767428076644846,0.011908057553591594,10.959549929571297,0.5949222731625395
58.0,20.529801474818644,0.47690757077936813,0.011902704747406432,10.959094145981895,0.5949277860460019
59.0,20.533406035124532,0.4770723391819172,0.011897353497544892,10.958638418670025,0.5949340160456056
60.0,20.537010069194004,0.47723711281452913,0.011892003803796151,10.958182747715092,0.5949374281401946
61.0,20.54061357645109,0.4774018916195804,0.011886655665944703,10.957727133196508,0.5949416214654907
62.0,20.54421655631975,0.4775666755394223,0.011881309083771005,10.957271575193701,0.5949461520695493
63.0,20.54781900822389,0.47773146451637816,0.011875964057052088,10.95681607378611,0.5949506193691486
64.0,20.551420931587337,0.47789625849275263,0.011870620585562125,10.956360629053185,0.594954911026651
65.0,20.55502232583388,0.47806105741082855,0.011865278669072861,10.955905241074387,0.5949592999629277
66.0,20.558623190387234,0.4782258612128529,0.011859938307354045,10.955449909929193,0.5949638402999867
67.0,20.56222352467106,0.4783906698410642,0.011854599500173724,10.954994635697085,0.5949671062385836
68.0,20.56582332810897,0.478555483237675,0.01184926224729866,10.95453941845756,0.5949732178910508
69.0,20.56942260012449,0.4787203013448576,0.01184392654849447,10.954084258290129,0.5949775635504335
70.0,20.573021340141132,0.4788851241047863,0.011838592403525954,10.953629155274308,0.5949816876055302
71.0,20.576619547582297,0.47904995145959156,0.011833259812157222,10.953174109489632,0.5949855726512341
72.0,20.580217221871383,0.47921478335139445,0.011827928774152063,10.952719121015638,0.5949898366785659
73.0,20.583814362431703,0.4793796197222848,0.011822599289273795,10.952264189931885,0.5949940346553027
74.0,20.58741096868652,0.4795444605143342,0.011817271357285686,10.951809316317933,0.5949982004489244
75.0,20.59100704005906,0.4797093056695878,0.011811944977950949,10.951354500253359,0.5950033151505971
76.0,20.594602575972466,0.47987415513007076,0.011806620151032867,10.95089974181775,0.595008870966384
77.0,20.59819757584986,0.480039008837788,0.011801296876294958,10.950445041090703,0.5950142615678135
78.0,20.60179203911428,0.48020386673471466,0.01179597515350099,10.949990398151824,0.5950196861293485
79.0,20.60538596518875,0.48036872876281117,0.01179065498241503,10.949535813080733,0.595025144556482
80.0,20.60897935349622,0.48053359486401254,0.011785336362801697,10.949081285957059,0.5950305668667889
81.0,20.61257220345958,0.4806984649802306,0.011780019294425983,10.948626816860438,0.5950359531782013
82.0,20.616164514501712,0.4808633390533543,0.011774703777053457,10.948172405870524,0.5950414380687593
83.0,20.61975628604541,0.4810282170252555,0.011769389810450316,10.947718053066975,0.5950468667921825
84.0,20.62334751751344,0.48119309883778105,0.011764077394383439,10.94726375852946,0.5950522193515467
85.0,20.62693820832851,0.4813579844327563,0.011758766528620276,10.946809522337658,0.5950576142356572
86.0,20.63052835791329,0.48152287375198527,0.011753457212929088,10.94635534457126,0.5950630978762236
87.0,20.634117965690415,0.4816877667372503,0.011748149447078872,10.945901225309964,0.5950684678235155
88.0,20.637707031082453,0.4818526633303115,0.011742843230839434,10.945447164633482,0.5950737877103239
89.0,20.64129555351194,0.48201756347290875,0.01173753856398137,10.944993162621527,0.5950791801993512
90.0,20.644883532401373,0.48218246710676443,0.011732235446276102,10.944539219353834,0.5950844458291749
91.0,20.648470967173196,0.4823473741735696,0.011726933877495984,10.944085334910133,0.5950897106457533
92.0,20.652057857249826,0.4825122846150059,0.011721633857414182,10.943631509370174,0.5950951545111081
93.0,20.65564420205362,0.4826771983727251,0.011716335385804851,10.943177742813713,0.5951006243865432
94.0,20.659230001006897,0.4828421153883671,0.011711038462442949,10.942724035320511,0.5951059788759151
95.0,20.662815253531967,0.483007035603542,0.011705743087104478,10.942270386970344,0.5951110971132231
96.0,20.66639995905106,0.4831719589598449,0.01170044925956638,10.941816797842995,0.5951159673246492
97.0,20.66998411698638,0.4833368853988518,0.01169515697960646,10.941363268018248,0.5951205296753809
98.0,20.673567726760126,0.48350181486211136,0.011689866247003636,10.94090979757591,0.5951249244023727
99.0,20.677150787794403,0.4836667472911597,0.011684577061537752,10.940456386595782,0.5951294307352102
100.0,20.68073329951133,0.48383168262750703,0.011679289422989628,10.940003035157684,0.5951351415142773
101.0,20.684315261332962,0.4839966208126476,0.011674003331141108,10.939549743341436,0.595140524602325
102.0,20.68789667268133,0.4841615617880534,0.011668718785775089,10.939096511226872,0.5951462777482095
103.0,20.69147753297843,0.4843265054951809,0.011663435786675462,10.938643338893831,0.5951521631349682
104.0,20.69505784164622,0.48449145187545767,0.01165815433362712,10.938190226422158,0.5951579105989895
105.0,20.698637598106636,0.48465640087030354,0.011652874426416028,10.937737173891712,0.5951634254590185
106.0,20.702216801781567,0.4848213524211067,0.01164759606482917,10.937284181382353,0.5951684109778218
107.0,20.70579545209288,0.4849863064692463,0.011642319248654658,10.93683124897395,0.5951727371786072
108.0,20.709373548462416,0.4851512629560772,0.01163704397768153,10.936378376746383,0.5951764099172103
109.0,20.71295109031198,0.4853162218229356,0.011631770251699952,10.935925564779534,0.5951793555321464
110.0,20.716528077063344,0.48548118301114,0.01162649807050121,10.935472813153295,0.5951829775067986
111.0,20.72010450813826,0.4856461464619864,0.01162122743387753,10.935020121947565,0.595188147052044
112.0,20.723680382958452,0.48581111211675654,0.011615958341622292,10.934567491242246,0.5951931003579681
113.0,20.727255700945612,0.48597607991671316,0.011610690793529957,10.934114921117256,0.5951977836716994
114.0,20.730830461521403,0.48614104980309397,0.011605424789396045,10.933662411652508,0.5952023994602582
115.0,20.734404664107476,0.4863060217171302,0.011600160329017109,10.93320996292793,0.5952072236119085
116.0,20.73797830812544,0.486470995600021,0.011594897412190866,10.93275757502345,0.595212525260064
117.0,20.741551392996904,0.48663597139295467,0.01158963603871611,10.932305248019007,0.5952182926967069
118.0,20.745123918143413,0.4868009490371024,0.011584376208392646,10.931852981994545,0.5952241618933986
119.0,20.74869588298654,0.48696592847361586,0.01157911792102144,10.931400777030014,0.5952299996461985
120.0,20.7522672869478,0.4871309096436236,0.011573861176404552,10.930948633205368,0.595235835225408
121.0,20.7558381294487,0.48729589248824573,0.01156860597434512,10.930496550600568,0.5952415909535224
122.0,20.759408409910726,0.48746087694858,0.011563352314647385,10.93004452929558,0.5952475395028861
123.0,20.762978127755332,0.48762586296569993,0.011558100197116707,10.929592569370376,0.5952536506537351
124.0,20.766547282403984,0.4877908504806745,0.011552849621559488,10.929140670904935,0.5952596905020834
125.0,20.770115873278094,0.48795583943454673,0.011547600587783289,10.928688833979239,0.5952654742032106
126.0,20.773683899799078,0.48812082976834587,0.011542353095596824,10.928237058673274,0.5952707428849245
127.0,20.777251361388327,0.4882858214230778,0.011537107144809756,10.927785345067035,0.595275466900905
128.0,20.780818257467224,0.4884508143397412,0.011531862735233031,10.927333693240518,0.5952801307168741
129.0,20.784384587457126,0.4886158084593082,0.011526619866678649,10.926882103273725,0.5952847701094549
130.0,20.78795035077938,0.4887808037227415,0.011521378538959638,10.926430575246664,0.5952894613465187
131.0,20.791515546855322,0.48894580007098254,0.01151613875189026,10.925979109239345,0.5952940739569486
132.0,20.79508017510627,0.4891107974449576,0.011510900505285856,10.925527705331785,0.595298770158151
133.0,20.798644234953542,0.4892757957855773,0.011505663798962869,10.925076363604003,0.5953032475165813
134.0,20.802207725818413,0.4894407950337351,0.011500428632738854,10.924625084136023,0.5953076020318694
135.0,20.805770647122188,0.4896057951303061,0.01149519500643251,10.924173867007875,0.5953120603256857
136.0,20.809332998286134,0.48977079601615264,0.011489962919863659,10.923722712299588,0.5953177133100248
137.0,20.81289477873151,0.4899357976321164,0.01148473237285322,10.923271620091198,0.5953233201504452
138.0,20.816455987879586,0.4901007999190317,0.011479503365223302,10.922820590462745,0.5953289127988526
139.0,20.820016625151606,0.4902658028177071,0.01147427589679706,10.922369623494271,0.5953343652515228
140.0,20.823576689968796,0.49043080626894087,0.011469049967398837,10.921918719265824,0.5953395797763936
141.0,20.827136181752415,0.4905958102135151,0.011463825576854105,10.92146787785745,0.5953446824480662
142.0,20.83069509992368,0.49076081459219373,0.01145860272498947,10.921017099349205,0.5953496575496124
143.0,20.83425344390381,0.4909258193457274,0.011453381411632617,10.920566383821141,0.5953547284379769
144.0,20.837811213114023,0.49109082441485513,0.011448161636612473,10.920115731353318,0.5953599452612796
145.0,20.841368406975548,0.4912558297402914,0.01144294339975903,10.919665142025798,0.5953649376824239
146.0,20.844925024909582,0.4914208352627469,0.011437726700903438,10.919214615918643,0.5953697931073652
147.0,20.848481066337342,0.4915858409229059,0.011432511539877994,10.918764153111917,0.5953746461496444
148.0,20.852036530680035,0.4917508466614482,0.011427297916516147,10.918313753685693,0.5953791306862731
149.0,20.85559141735888,0.49191585241902974,0.011422085830652486,10.917863417720037,0.5953864666622001
150.0,20.859145725795063,0.4920808581362977,0.011416875282122816,10.917413145295026,0.5953920824025881
151.0,20.862699455409807,0.49224586375388535,0.011411666270763997,10.91696293649073,0.5953971819763314
152.0,20.86625260562432,0.49241086921240784,0.01140645879641409,10.916512791387229,0.59540219828311
153.0,20.869805175859813,0.49257587445246687,0.011401252858912364,10.9160627100646,0.5954072087629061
154.0,20.8733571655375,0.4927408794146524,0.011396048458099176,10.915612692602922,0.5954121439901046
155.0,20.876908574078602,0.4929058840395359,0.011390845593816127,10.915162739082277,0.5954169929647691
156.0,20.880459400904343,0.49307088826767886,0.011385644265905923,10.914712849582749,0.5954217054953577
157.0,20.884009645435945,0.49323589203962964,0.011380444474212516,10.91426302418442,0.5954262488774135
158.0,20.887559307094644,0.49340089529591485,0.011375246218580886,10.913813262967375,0.5954308034683861
159.0,20.891108385301685,0.4935658979770608,0.011370049498857455,10.913363566011698,0.5954352582215624
160.0,20.89465687947832,0.4937309000235676,0.011364854314889579,10.91291393339748,0.5954395265188469
161.0,20.898204789045785,0.4938959013759326,0.011359660666525962,10.912464365204807,0.5954438035419664
162.0,20.90175211342537,0.4940609019746283,0.011354468553616432,10.912014861513764,0.5954482606682928
163.0,20.905298852038342,0.4942259017601242,0.011349277976012054,10.911565422404442,0.5954527645206537
164.0,20.908845004305977,0.49439090067286884,0.011344088933565054,10.911116047956927,0.5954571160662364
165.0,20.91239056964958,0.4945558986533065,0.01133890142612892,10.910666738251312,0.595461396877545
166.0,20.91593554749046,0.49472089564186045,0.01133371545355835,10.91021749336768,0.5954656148590066
167.0,20.91947993724993,0.4948858915789465,0.011328531015709246,10.909768313386126,0.5954696753429776
168.0,20.923023738349325,0.4950508864049678,0.011323348112438706,10.909319198386733,0.5954737703685613
169.0,20.926566950209995,0.4952158800603084,0.011318166743605152,10.908870148449594,0.5954778549076026
170.0,20.930109572253308,0.49538087248534785,0.011312986909068182,10.908421163654793,0.59548179340819
171.0,20.93365160390064,0.4955458636204473,0.011307808608688656,10.90797224408242,0.5954856782231394
172.0,20.937193044573377,0.49571085340596266,0.011302631842328726,10.907523389812559,0.5954892571921555
173.0,20.940733893692943,0.49587584178223265,0.011297456609851712,10.907074600925295,0.5954926651516865
174.0,20.94427415068076,0.4960408286895861,0.011292282911122282,10.906625877500714,0.5954959210170269
175.0,20.94781381495828,0.49620581406833714,0.011287110746006388,10.9061772196189,0.5954992833038937
176.0,20.95135288594697,0.49637079785879096,0.011281940114371251,10.905728627359935,0.5955030295383105
177.0,20.954891363068317,0.49653578000124243,0.011276771016085384,10.905280100803898,0.5955063244899174
178.0,20.95842924574383,0.4967007604359704,0.0112716034510186,10.904831640030869,0.5955091869353382
179.0,20.961966533395046,0.49686573910324694,0.01126643741904204,10.904383245120925,0.5955121073306191
180.0,20.965503225443506,0.49703071594333,0.011261272919443363,10.903934916154135,0.5955149609372027
181.0,20.96903932131079,0.49719569089646964,0.011256109951886206,10.903486653210564,0.5955181858715598
182.0,20.972574820418505,0.497360663902898,0.011250948516261391,10.903038456370272,0.5955214245610206
183.0,20.976109722188262,0.4975256349028423,0.01124578861246145,10.902590325713318,0.5955247248529518
184.0,20.979644026041726,0.4976906038365229,0.01124063024038069,10.90214226131976,0.5955281647943075
185.0,20.983177731400563,0.4978555706441396,0.011235473399915121,10.901694263269652,0.5955316363458916
186.0,20.986710837686473,0.49802053526588735,0.011230318090962492,10.901246331643048,0.5955355408236523
187.0,20.9902433443212,0.49818549764194975,0.011225164313422275,10.900798466519994,0.5955393812591221
188.0,20.99377525072649,0.4983504577124984,0.011220012067195686,10.900350667980538,0.5955431162863598
189.0,20.99730655632414,0.49851541541770006,0.011214861352185664,10.899902936104722,0.5955469254043108
190.0,21.00083726053597,0.4986803706977052,0.011209712168296804,10.899455270972586,0.59555069556446
191.0,21.004367362783817,0.4988453234926569,0.011204564515435451,10.899007672664169,0.5955547584332821
192.0,21.007896862489574,0.4990102737426878,0.011199418393509662,10.898560141259502,0.5955587190845852
193.0,21.011425759075145,0.49917522138792275,0.011194273802429145,10.898112676838615,0.595562426620771
