k,PSNR,SSIM,mse,Log-Gradient,Angle
0.0,20.32042963949219,0.4673896377258154,0.0,10.985552020335119,0.5931177018594069
1.0,20.32351860102272,0.46752768955877183,0.010210669448112438,10.985157829794321,0.5946224785800728
2.0,20.327127638609834,0.46769083563542196,0.012080826716846349,10.984701888609981,0.5946367237432937
3.0,20.33075951441445,0.4678551520460523,0.012187557679026942,10.984243280991127,0.5946402617427949
4.0,20.334393130321622,0.46801958750850176,0.012195164645289166,10.983784457046239,0.5946450030248779
5.0,20.338026877381196,0.4681840612809367,0.012193154983200874,10.983325604680843,0.594649601860986
6.0,20.341660540332214,0.4683485623543316,0.012189521938442157,10.982866750585677,0.5946538246623781
7.0,20.34529407506905,0.4685130885068866,0.012185483600156394,10.982407900838366,0.5946580722241498
8.0,20.34892747050626,0.46867763913289745,0.012181317485852656,10.981949057426174,0.5946611994729706
9.0,20.352560723414513,0.46884221402509857,0.01217711203146007,10.981490221014173,0.5946652855015644
10.0,20.356193832372895,0.46900681308534037,0.012172891068797733,10.981031391917238,0.5946706029088241
11.0,20.35982679641505,0.46917143624982977,0.012168660421315229,10.980572570365103,0.5946757133351097
12.0,20.363459614838707,0.46933608346195155,0.012164425618938634,10.980113756521515,0.5946807621440403
13.0,20.367092286862825,0.4695007546608256,0.012160185482955358,10.979654950545585,0.5946857652525578
14.0,20.370724811869717,0.46966544979469,0.012155942679732613,10.979196152549317,0.5946908037066464
15.0,20.374357189239845,0.46983016881226747,0.01215169832855613,10.978737362635645,0.5946959239277031
16.0,20.37798941839826,0.46999491166479546,0.012147452783215325,10.978278580904608,0.59470115679758
17.0,20.381621498775694,0.4701596783040558,0.012143207038208608,10.977819807445389,0.5947063861695431
18.0,20.3852534298068,0.47032446868218813,0.012138961459459542,10.977361042341647,0.5947117017516769
19.0,20.388885210928862,0.4704892827515795,0.012134716159419565,10.976902285673965,0.5947170038817077
20.0,20.392516841580978,0.47065412046478833,0.01213047122107641,10.976443537520685,0.5947223475145927
21.0,20.396148321203405,0.4708189817744637,0.012126226706218945,10.975984797958501,0.5947276611025402
22.0,20.39977964923719,0.4709838666333315,0.012121982661242932,10.975526067062892,0.5947329578407359
23.0,20.4034108251238,0.4711487749941374,0.012117739121266829,10.975067344908433,0.5947382631612904
24.0,20.407041848304914,0.4713137068096411,0.012113496113074928,10.974608631569025,0.5947435771168801
25.0,20.41067271822229,0.4714786620325979,0.012109253657241161,10.974149927118063,0.5947488885116498
26.0,20.414303434317603,0.47164364061574054,0.012105011769673666,10.973691231628576,0.5947542071984611
27.0,20.417933996032374,0.47180864251178095,0.012100770462748158,10.973232545173309,0.5947595123576003
28.0,20.42156440280791,0.47197366767339083,0.012096529746145609,10.972773867824799,0.5947648693199789
29.0,20.42519465408524,0.4721387160532052,0.012092289627476502,10.972315199655439,0.5947702079558603
30.0,20.42882474930508,0.47230378760381714,0.012088050112749089,10.971856540737512,0.5947755731653278
31.0,20.4324546879078,0.4724688822777749,0.01208381120672373,10.971397891143228,0.5947809416421826
32.0,20.436084469333426,0.4726340000275792,0.012079572913182336,10.97093925094475,0.5947862589554292
33.0,20.4397140930216,0.4727991408056773,0.012075335235134883,10.970480620214214,0.5947915774896911
34.0,20.443343558411545,0.4729643045644731,0.012071098174978798,10.970021999023748,0.5947969200843732
35.0,20.446972864942104,0.47312949125631226,0.01206686173462247,10.969563387445476,0.5948022359489994
36.0,20.45060201205171,0.473294700833494,0.012062625915581817,10.969104785551536,0.5948074626166601
37.0,20.454230999178357,0.47345993324825714,0.012058390719056006,10.968646193414093,0.5948126588127874
38.0,20.457859825759638,0.4736251884527909,0.012054156145987321,10.968187611105332,0.5948178498343463
39.0,20.461488491232693,0.47379046639923317,0.01204992219710863,10.967729038697472,0.5948231124443637
40.0,20.46511699503426,0.4739557670396653,0.012045688872981302,10.967270476262769,0.5948283579497172
41.0,20.46874533660061,0.47412109032610816,0.012041456174025595,10.966811923873522,0.5948337306747268
42.0,20.4723735153676,0.47428643621053945,0.012037224100545217,10.966353381602067,0.5948392402788802
43.0,20.476001530770652,0.4744518046448736,0.012032992652747154,10.965894849520794,0.5948448161016028
44.0,20.479629382244728,0.47461719558097193,0.012028761830757828,10.96543632770213,0.59485040474471
45.0,20.483257069224376,0.47478260897063856,0.012024531634636263,10.964977816218566,0.5948560288448518
46.0,20.486884591143678,0.4749480447656331,0.012020302064385067,10.96451931514263,0.5948616118321818
47.0,20.490511947436296,0.4751135029176429,0.012016073119959236,10.964060824546907,0.5948673138109402
48.0,20.494139137535427,0.4752789833783167,0.012011844788777768,10.963602344504022,0.594873064212111
49.0,20.497766160873848,0.47544448609923756,0.012007616864802336,10.963143875086438,0.5948788151514129
50.0,20.501393016883874,0.4756100110319323,0.012003389564745538,10.962685416366881,0.5948845421282131
51.0,20.505019704997387,0.475775558127885,0.011999162888617756,10.962226968418138,0.5948901544979973
52.0,20.50864622464582,0.47594112733851174,0.011994936836407843,10.961768531313048,0.5948956712668441
53.0,20.512272575260155,0.47610671861517795,0.011990711408086597,10.961310105124502,0.594901204991725
54.0,20.515898756270946,0.4762723319091913,0.011986486603609596,10.960851689925455,0.5949068533143461
55.0,20.519524767108305,0.47643796717181575,0.01198226242291943,10.960393285788912,0.5949123758849035
56.0,20.523150607201877,0.4766036243542389,0.011978038865947718,10.959934892787937,0.5949177938566408
57.0,20.526776275980893,0.47676930340761653,0.011973815932616715,10.959476510995648,0.5949231628627553
58.0,20.53040177287411,0.47693500428303387,0.011969593622840563,10.959018140485226,0.5949288067077277
59.0,20.534027097309874,0.47710072693152505,0.011965371936526498,10.9585597813299,0.5949347382401288
60.0,20.537652248716075,0.477266471304075,0.011961150873575917,10.958101433602964,0.5949381559297809
61.0,20.54127722652015,0.4774322373516016,0.011956930433885045,10.957643097377765,0.5949424716264594
62.0,20.544902030149107,0.47759802502498055,0.011952710617345779,10.95718477272771,0.5949470388630627
63.0,20.548526659029505,0.4777638342750241,0.01194849142384622,10.95672645972626,0.5949515141289994
64.0,20.55215111258746,0.4779296650524934,0.01194427285327125,10.956268158446937,0.5949557882982616
65.0,20.555775390248648,0.4780955173080968,0.011940054905503044,10.955809868963318,0.5949603066902861
66.0,20.55939949143831,0.478261390992482,0.0119358375804214,10.955351591349038,0.5949649501974561
67.0,20.563023415581227,0.47842728605624596,0.011931620877904016,10.954893325677789,0.5949691277607128
68.0,20.566647162101756,0.4785932024499297,0.011927404797827043,10.954435072023323,0.5949742617432726
69.0,20.570270730423804,0.4787591401240244,0.011923189340065083,10.953976830459444,0.5949785911434174
70.0,20.57389411997084,0.47892509902895425,0.011918974504491614,10.953518601060024,0.5949826854539276
71.0,20.577517330165882,0.4790910791151058,0.011914760290979102,10.953060383898979,0.5949866115450987
72.0,20.581140360431533,0.47925708033279685,0.011910546699399248,10.952602179050292,0.5949909642674561
73.0,20.584763210189916,0.47942310263229615,0.011906333729623025,10.952143986588002,0.5949951553809906
74.0,20.588385878862752,0.4795891459638241,0.011902121381520993,10.951685806586202,0.5949993910222598
75.0,20.592008365871294,0.47975521027753526,0.011897909654963328,10.951227639119047,0.5950049301731709
76.0,20.595630670636368,0.47992129552353874,0.011893698549819967,10.950769484260745,0.5950104872416515
77.0,20.599252792578362,0.48008740165188396,0.011889488065960635,10.950311342085563,0.595015870184785
78.0,20.602874731117215,0.48025352861257037,0.011885278203255023,10.949853212667827,0.5950213696924721
79.0,20.60649648567243,0.4804196763555368,0.011881068961572863,10.949395096081922,0.5950268797295135
80.0,20.61011805566308,0.48058584483067834,0.011876860340783984,10.948936992402283,0.5950323191776861
81.0,20.61373944050778,0.4807520339878287,0.0118726523407583,10.94847890170341,0.5950377903596854
82.0,20.61736063962472,0.48091824377676545,0.011868444961366003,10.948020824059855,0.595043326822805
83.0,20.620981652431652,0.4810844741472186,0.011864238202477489,10.94756275954623,0.595048759899753
84.0,20.624602478345885,0.48125072504886357,0.011860032063963561,10.947104708237203,0.5950541344311997
85.0,20.62822311678429,0.48141699643131464,0.011855826545695261,10.946646670207501,0.5950596340362436
86.0,20.631843567163294,0.4815832882441404,0.011851621647544101,10.946188645531906,0.5950651539881481
87.0,20.6354638288989,0.48174960043685067,0.011847417369382014,10.945730634285256,0.5950705422561082
88.0,20.63908390140667,0.4819159329589071,0.011843213711081341,10.94527263654245,0.5950759333859741
89.0,20.642703784101712,0.4820822857597091,0.011839010672514973,10.944814652378442,0.5950813403392252
90.0,20.646323476398717,0.4822486587886116,0.01183480825355624,10.94435668186824,0.5950866445865045
91.0,20.649942977711927,0.4824150519949077,0.011830606454079073,10.943898725086912,0.5950919604892891
92.0,20.653562287455163,0.4825814653278439,0.01182640527395793,10.943440782109585,0.5950975181840095
93.0,20.657181405041783,0.48274789873660745,0.011822204713067871,10.942982853011436,0.5951030351735757
94.0,20.660800329884744,0.4829143521703408,0.011818004771284524,10.942524937867708,0.5951083307703723
95.0,20.66441906139653,0.4830808255781221,0.011813805448484142,10.94206703675369,0.595113389028736
96.0,20.668037598989212,0.48324731890898126,0.011809606744543587,10.941609149744735,0.595118182550206
97.0,20.671655942074416,0.48341383211189654,0.011805408659340395,10.941151276916253,0.5951226403360691
98.0,20.675274090063343,0.48358036513579067,0.011801211192752757,10.940693418343706,0.5951270348114118
99.0,20.67889204236675,0.48374691792953733,0.011797014344659499,10.940235574102616,0.5951323383145309
100.0,20.68250979839496,0.4839134904419467,0.011792818114940137,10.939777744268557,0.595137950389449
101.0,20.68612735755787,0.48408008262179075,0.011788622503474849,10.939319928917167,0.5951434669187865
102.0,20.689744719264933,0.4842466944177714,0.011784427510144538,10.938862128124132,0.5951494436711898
103.0,20.693361882925167,0.4844133257785556,0.01178023313483087,10.938404341965201,0.5951552884847039
104.0,20.696978847947165,0.48457997665274205,0.011776039377416087,10.937946570516175,0.5951610148930722
105.0,20.70059561373907,0.48474664698888487,0.011771846237783278,10.937488813852914,0.5951663287375569
106.0,20.70421217970862,0.4849133367354861,0.011767653715816149,10.93703107205133,0.5951710033399141
107.0,20.70782854526309,0.4850800458409898,0.01176346181139927,10.936573345187396,0.5951750145157292
108.0,20.711444709809342,0.485246774253792,0.011759270524417801,10.936115633337138,0.595178282277436
109.0,20.715060672753793,0.48541352192222903,0.011755079854757796,10.93565793657664,0.5951812442078609
110.0,20.718676433502434,0.48558028879459547,0.011750889802305983,10.935200254982039,0.5951861492651854
111.0,20.722291991460832,0.48574707481912505,0.0117467003669498,10.93474258862953,0.5951913411381259
112.0,20.7259073460341,0.4859138799440001,0.011742511548577533,10.934284937595365,0.5951961537598793
113.0,20.729522496626945,0.4860807041173538,0.011738323347078175,10.93382730195585,0.5952008080353326
114.0,20.733137442643617,0.4862475472872641,0.01173413576234155,10.933369681787344,0.595205591234968
115.0,20.736752183487962,0.4864144094017593,0.011729948794258213,10.932912077166266,0.5952107624756652
116.0,20.740366718563365,0.4865812904088081,0.01172576244271947,10.932454488169089,0.5952164774092061
117.0,20.74398104727281,0.48674819025634136,0.011721576707617469,10.931996914872343,0.5952224512330415
118.0,20.747595169018833,0.4869151088922224,0.01171739158884509,10.931539357352612,0.5952283632712304
119.0,20.75120908320354,0.48708204626427093,0.011713207086296031,10.931081815686534,0.595234271182095
120.0,20.75482278922862,0.4872490023202531,0.011709023199864813,10.930624289950805,0.5952401228372602
121.0,20.75843628649531,0.48741597700788136,0.011704839929446657,10.930166780222173,0.5952460294725505
122.0,20.76204957440445,0.48758297027481673,0.011700657274937697,10.929709286577447,0.5952522412747869
123.0,20.765662652356415,0.487749982068673,0.011696475236234747,10.929251809093484,0.5952583808639164
124.0,20.769275519751183,0.487917012337004,0.011692293813235558,10.928794347847205,0.5952643220095465
125.0,20.772888175988278,0.48808406102731733,0.011688113005838573,10.928336902915575,0.5952697876690639
126.0,20.776500620466813,0.4882511280870682,0.01168393281394307,10.927879474375624,0.5952746558788018
127.0,20.78011285258547,0.4884182134636583,0.011679753237449204,10.92742206230443,0.5952793857786646
128.0,20.783724871742496,0.4885853171044398,0.011675574276257912,10.926964666779131,0.5952840634414936
129.0,20.787336677335713,0.48875243895671555,0.011671395930270891,10.926507287876916,0.595288828675282
130.0,20.79094826876252,0.48891957896772675,0.011667218199390766,10.92604992567503,0.5952935145408084
131.0,20.794559645419895,0.4890867370846781,0.011663041083520854,10.925592580250777,0.5952982730810233
132.0,20.79817080670437,0.4892539132547092,0.011658864582565412,10.925135251681509,0.5953028351087526
133.0,20.801781752012065,0.48942110742491657,0.011654688696429499,10.924677940044633,0.5953072579028327
134.0,20.805392480738682,0.4895883195423439,0.011650513425018945,10.924220645417616,0.5953116694482439
135.0,20.809002992279467,0.48975554955398204,0.011646338768240486,10.923763367877976,0.595317396818886
136.0,20.812613286029276,0.4899227974067703,0.011642164726001675,10.923306107503286,0.5953230950929039
137.0,20.816223361382523,0.4900900630476004,0.011637991298210885,10.922848864371174,0.5953287598229571
138.0,20.81983321773319,0.4902573464233086,0.01163381848477737,10.922391638559318,0.5953342955970757
139.0,20.82344285447485,0.4904246474806863,0.011629646285611177,10.921934430145459,0.5953395911693639
140.0,20.827052271000642,0.4905919661664648,0.011625474700623266,10.921477239207382,0.5953447688077899
141.0,20.83066146670328,0.49075930242733384,0.011621303729725389,10.921020065822935,0.595349810756468
142.0,20.834270440975068,0.49092665620992987,0.01161713337283019,10.920562910070013,0.595354961377793
143.0,20.83787919320786,0.49109402746083214,0.01161296362985115,10.920105772026568,0.5953602443128904
144.0,20.84148772279312,0.49126141612658075,0.01160879450070266,10.91964865177061,0.5953652891122347
145.0,20.845096029121855,0.49142882215365175,0.011604625985299863,10.919191549380196,0.5953702295583144
146.0,20.848704111584688,0.4915962454884852,0.011600458083558954,10.918734464933438,0.5953750780783572
147.0,20.852311969571783,0.4917636860774564,0.011596290795396832,10.918277398508508,0.5953801682995957
148.0,20.855919602472902,0.4919311438669001,0.011592124120731332,10.917820350183623,0.5953874125213194
149.0,20.859527009677375,0.49209861880310046,0.011587958059481198,10.91736332003706,0.5953929011552481
150.0,20.863134190574122,0.49226611083228455,0.011583792611565988,10.916906308147148,0.5953980611303785
151.0,20.866741144551643,0.49243361990063556,0.011579627776906257,10.916449314592265,0.5954031731681896
152.0,20.870347870998003,0.4926011459542818,0.01157546355542331,10.91599233945085,0.5954082709825534
153.0,20.87395436930086,0.492768688939307,0.011571299947039506,10.91553538280139,0.5954132586134769
154.0,20.877560638847434,0.49293624880173964,0.01156713695167797,10.915078444722427,0.5954181695392364
155.0,20.881166679024552,0.49310382548756326,0.011562974569262833,10.914621525292556,0.5954229118937412
156.0,20.8847724892186,0.49327141894270654,0.011558812799719062,10.914164624590425,0.5954275196417012
157.0,20.888378068815555,0.4934390291130509,0.011554651642972593,10.913707742694736,0.5954321419955435
158.0,20.891983417200972,0.49360665594442715,0.011550491098950236,10.913250879684243,0.5954366349275302
159.0,20.895588533759984,0.4937742993826173,0.011546331167579795,10.912794035637752,0.5954409346192352
160.0,20.899193417877314,0.493941959373351,0.011542171848789954,10.912337210634124,0.5954453413337261
161.0,20.90279806893726,0.4941096358623178,0.011538013142510344,10.911880404752273,0.5954499280588842
162.0,20.906402486323714,0.49427732879514047,0.011533855048671559,10.911423618071163,0.595454444223346
163.0,20.91000666942012,0.49444503811740886,0.011529697567205132,10.910966850669814,0.5954588527213895
164.0,20.91361061760955,0.4946127637746562,0.011525540698043537,10.910510102627295,0.5954631789259456
165.0,20.91721433027462,0.49478050571236737,0.011521384441120313,10.910053374022732,0.5954674058058692
166.0,20.920817806797558,0.49494826387597585,0.011517228796369842,10.909596664935298,0.5954714991494555
167.0,20.924421046560155,0.4951160382108672,0.011513073763727512,10.909139975444225,0.5954757300099476
168.0,20.928024048943804,0.4952838286623835,0.011508919343129788,10.90868330562879,0.595479809157711
169.0,20.931626813329466,0.49545163517580676,0.011504765534514065,10.908226655568328,0.5954838203890411
170.0,20.935229339097695,0.49561945769638155,0.011500612337818746,10.907770025342224,0.5954876041833226
171.0,20.93883162562864,0.49578729616929446,0.011496459752983256,10.907313415029916,0.5954911990204795
172.0,20.94243367230202,0.4959551505396895,0.011492307779948065,10.906856824710893,0.595494579175973
173.0,20.946035478497148,0.49612302075265746,0.011488156418654655,10.906400254464694,0.5954977794556667
174.0,20.949637043592922,0.4962909067532448,0.011484005669045538,10.905943704370914,0.5955015745607083
175.0,20.953238366967817,0.49645880848644147,0.011479855531064367,10.9054871745092,0.5955051748383763
176.0,20.956839447999922,0.4966267258972001,0.011475706004655754,10.905030664959247,0.5955082199980939
177.0,20.960440286066884,0.4967946589304167,0.011471557089765449,10.904574175800802,0.5955111203440401
178.0,20.96404088054596,0.4969626075309397,0.01146740878634031,10.904117707113668,0.595514055205488
179.0,20.967641230813978,0.49713057164357427,0.011463261093803268,10.903661258977687,0.5955171521794748
180.0,20.971241336247353,0.49729855121306804,0.011459114011833338,10.903204831472756,0.5955204957171459
181.0,20.97484119622212,0.4974665461841316,0.011454967540396849,10.902748424678816,0.5955238244622727
182.0,20.978440810113867,0.4976345565014202,0.011450821679461518,10.902292038675862,0.5955273212252673
183.0,20.982040177297783,0.4978025821095395,0.01144667642899671,10.901835673543944,0.5955308362718098
184.0,20.985639297148655,0.49797062295305405,0.011442531788973295,10.90137932936316,0.5955347442961654
185.0,20.989238169040853,0.4981386789764759,0.011438387759363624,10.900923006213654,0.5955386925220814
186.0,20.99283679234834,0.49830675012427067,0.011434244340141635,10.900466704175631,0.5955425107280664
187.0,20.99643516644467,0.4984748363408525,0.011430101531282788,10.90001042332934,0.5955463763140262
188.0,21.00003329070298,0.49864293757059475,0.011425959332763996,10.899554163755083,0.5955502330739272
189.0,21.003631164496017,0.4988110537578174,0.011421817744563734,10.899097925533212,0.5955543337923989
190.0,21.0072287871961,0.49897918484679393,0.011417676766661994,10.89864170874413,0.5955584006259276
191.0,21.01082615817517,0.49914733078175383,0.011413536399040348,10.89818551346829,0.5955622099357053
192.0,21.014423276804713,0.49931549150687404,0.011409396641681703,10.897729339786197,0.5955657672066826
