k,PSNR,SSIM,mse,Log-Gradient,Angle
0.0,20.32042963949219,0.4673896377258154,0.0,10.985552020335119,0.5931177018594069
1.0,20.32351847432087,0.46752768389575466,0.010210250677705462,10.985157845963704,0.5946224783164377
2.0,20.32712723714797,0.46769081761364645,0.012079917869244635,10.984701939655968,0.5946367226279365
3.0,20.330758689167055,0.4678551149177361,0.012186150839208959,10.984243385736324,0.5946402602254609
4.0,20.3343917321687,0.4680195245173371,0.01219325851646026,10.983784634327064,0.5946450003162742
5.0,20.33802475717335,0.4681839656653774,0.012190749595251056,10.98332587333986,0.5946495976111363
6.0,20.341657548899356,0.46834842734802623,0.012186617569183315,10.982867129470504,0.5946538187095197
7.0,20.345290063222258,0.46851290733878553,0.012182080586821603,10.982408408801406,0.5946580637663276
8.0,20.3489222890384,0.4686774050272766,0.012177416185419765,10.98194971332451,0.5946611871739255
9.0,20.352554223100423,0.4688419202015896,0.01217271280856281,10.981491043709516,0.5946652743638117
10.0,20.356185863969603,0.46900645275893643,0.01216799428998858,10.981032400275907,0.5946705887625492
11.0,20.359817210661948,0.46917100263089906,0.012163266453991742,10.980573783257995,0.5946756959958527
12.0,20.36344826245767,0.4693355697562513,0.012158534831329207,10.980115192824082,0.5946807419407165
13.0,20.367079018558385,0.4695001540695076,0.012153798243253609,10.979656629137816,0.5946857418978646
14.0,20.37070947832923,0.46966475551431636,0.012149059356445537,10.97919809231571,0.5946907773003797
15.0,20.374339641133595,0.46982937403482367,0.012144319290495989,10.9787395824652,0.5946958940861543
16.0,20.377969506379635,0.4699940095777036,0.012139578399237525,10.9782810996908,0.5947011231082017
17.0,20.38159907348135,0.47015866209017204,0.01213483767749857,10.977822644086153,0.5947063489357768
18.0,20.385228341856767,0.47032333151982714,0.012130097491193514,10.97736421573936,0.5947116598251687
19.0,20.38885731092671,0.4704880178145279,0.012125357952778882,10.976905814735428,0.5947169578442633
20.0,20.392485980113975,0.47065272092230287,0.012120619145241693,10.976447441157106,0.5947222966688258
21.0,20.39611434884265,0.47081744079129684,0.012115881130365753,10.97598909508548,0.594727605611037
22.0,20.399742416537766,0.47098217736972886,0.012111143954538736,10.975530776600397,0.5947328982699327
23.0,20.40337018262491,0.4711469306058593,0.012106407652868415,10.97507248578079,0.5947381986429073
24.0,20.40699764653006,0.47131170044797227,0.012101672252126935,10.974614222704897,0.5947435070278694
25.0,20.410624807679376,0.47147648684435756,0.012096937772874392,10.974155987450438,0.5947488126421847
26.0,20.414251665499116,0.47164128974329317,0.012092204231004381,10.97369778009474,0.5947541258881608
27.0,20.417878219415527,0.47180610909304227,0.012087471638877233,10.973239600714837,0.5947594268146239
28.0,20.421504468854785,0.47197094484185165,0.012082740006157985,10.972781449387536,0.5947647762892648
29.0,20.42513041324293,0.4721357969379349,0.012078009340440668,10.972323326189482,0.5947701087886585
30.0,20.428756052005856,0.4723006653294775,0.01207327964771703,10.97186523119719,0.5947754661961021
31.0,20.43238138456925,0.4724655499646306,0.012068550932730512,10.97140716448709,0.594780829001978
32.0,20.436006410358605,0.47263045079150773,0.012063823199246138,10.970949126135544,0.5947861385134784
33.0,20.439631128799167,0.4727953677581862,0.012059096450256827,10.97049111621887,0.5947914508093188
34.0,20.443255539315956,0.4729603008127028,0.012054370688142928,10.970033134813363,0.5947967842297175
35.0,20.446879641333705,0.47312524990305843,0.012049645914795857,10.969575181995292,0.5948020948063154
36.0,20.45050343427693,0.47329021497720886,0.012044922131714444,10.969117257840932,0.5948073142592094
37.0,20.454126917569837,0.4734551959830701,0.012040199340080923,10.968659362426552,0.5948125053726797
38.0,20.457750090636395,0.4736201928685156,0.012035477540820686,10.968201495828437,0.5948176820608091
39.0,20.461372952900266,0.47378520558137605,0.012030756734649838,10.967743658122883,0.5948229404222857
40.0,20.464995503784852,0.47395023406944164,0.012026036922113018,10.967285849386208,0.5948281761161635
41.0,20.46861774271327,0.47411527828046,0.012021318103613947,10.966828069694749,0.594833529471375
42.0,20.472239669108333,0.4742803381621357,0.012016600279439855,10.966370319124874,0.5948390296711258
43.0,20.475861282392604,0.4744454136621265,0.012011883449781378,10.965912597752972,0.5948445925415805
44.0,20.479482581988325,0.474610504728052,0.012007167614748728,10.965454905655468,0.5948501693831976
45.0,20.483103567317475,0.4747756113074863,0.012002452774384852,10.964997242908817,0.5948557845016723
46.0,20.48672423780173,0.474940733347962,0.011997738928676489,10.964539609589504,0.5948613546521594
47.0,20.49034459286249,0.47510587079696703,0.011993026077562806,10.964082005774053,0.5948670388745588
48.0,20.493964631920853,0.47527102360194795,0.01198831420801671,10.963624431539003,0.5948727793717671
49.0,20.497584354397638,0.47543619171030604,0.011983603114571539,10.963166886960718,0.5948785170052747
50.0,20.501203759713363,0.47560137506939854,0.011978893013767644,10.962709372115809,0.594884236785513
51.0,20.504822847288278,0.4757665736265417,0.011974183905600263,10.962251887080926,0.5948898432344328
52.0,20.508441616542314,0.47593178732901015,0.011969475790043203,10.961794431932752,0.5948953511793383
53.0,20.51206006689513,0.4760970161240358,0.011964768667052393,10.961337006748014,0.594900863597891
54.0,20.515678197766107,0.4762622599588013,0.011960062536568686,10.960879611603469,0.5949065016647909
55.0,20.519296008574308,0.47642751878045414,0.01195535739852017,10.960422246575918,0.5949120213817075
56.0,20.522913498738543,0.47659279253609244,0.011950653252824009,10.9599649117422,0.5949174313278404
57.0,20.526530667677306,0.47675808117277607,0.011945950099388182,10.959507607179187,0.5949227859713987
58.0,20.53014751480883,0.47692338463752404,0.011941247938112803,10.959050332963796,0.5949283693626265
59.0,20.533764039551038,0.4770887028773048,0.01193654676889118,10.958593089172982,0.5949344633115017
60.0,20.53738024132157,0.4772540358390526,0.011931846591610907,10.958135875883737,0.5949378440942897
61.0,20.540996119537805,0.47741938346965385,0.011927147406154614,10.95767869317309,0.5949421039709214
62.0,20.5446116736168,0.47758474571595316,0.011922449212400705,10.95722154111811,0.594946663612713
63.0,20.54822690297535,0.47775012252475446,0.011917752010224048,10.956764419795912,0.5949511364825829
64.0,20.551841807029966,0.477915513842817,0.011913055799496383,10.956307329283637,0.594955415376501
65.0,20.555456385196862,0.4780809196168622,0.011908360580086822,10.955850269658479,0.5949598825062755
66.0,20.559070636891978,0.4782463397935668,0.01190366635186239,10.955393240997658,0.5949644375890081
67.0,20.562684561530965,0.47841177431956244,0.011898973114688198,10.954936243378443,0.594968345498363
68.0,20.566298158529186,0.4785772231414421,0.011894280868427788,10.954479276878137,0.5949738187494754
69.0,20.56991142730174,0.4787426862057554,0.011889589612943476,10.954022341574083,0.5949781555631183
70.0,20.57352436726343,0.4789081634590131,0.011884899348096563,10.953565437543663,0.594982264760601
71.0,20.577136977828765,0.47907365484767855,0.011880210073747437,10.953108564864298,0.5949861370799129
72.0,20.580749258412002,0.4792391603181761,0.011875521789755927,10.952651723613446,0.5949904852807134
73.0,20.58436120842709,0.4794046798168908,0.011870834495981364,10.952194913868608,0.5949946821986882
74.0,20.58797282728772,0.47957021329016375,0.011866148192282709,10.95173813570732,0.5949988885464232
75.0,20.591584114407286,0.47973576068429474,0.011861462878518757,10.951281389207159,0.5950042502104308
76.0,20.59519506919891,0.4799013219455402,0.01185677855454813,10.950824674445737,0.5950098051205426
77.0,20.598805691075427,0.48006689702011923,0.011852095220229565,10.950367991500707,0.595015187001672
78.0,20.60241597944941,0.480232485854206,0.011847412875421792,10.949911340449765,0.595020659727784
79.0,20.606025933733136,0.48039808839393544,0.011842731519983803,10.949454721370635,0.5950261457924381
80.0,20.609635553338613,0.4805637045853978,0.01183805115377474,10.948998134341089,0.5950315785298227
81.0,20.61324483767757,0.4807293343746489,0.011833371776654134,10.948541579438931,0.595037013256004
82.0,20.616853786161464,0.48089497770770007,0.011828693388481812,10.94808505674201,0.5950425294353691
83.0,20.620462398201454,0.4810606345305164,0.011824015989118121,10.947628566328204,0.5950479577569735
84.0,20.624070673208465,0.4812263047890331,0.011819339578423769,10.947172108275437,0.595053322862658
85.0,20.627678610593104,0.48139198842913355,0.011814664156260032,10.946715682661667,0.5950587798623467
86.0,20.631286209765722,0.4815576853966668,0.011809989722488725,10.94625928956489,0.5950642864252341
87.0,20.634893470136397,0.48172339563743943,0.011805316276972226,10.945802929063145,0.5950696656952047
88.0,20.63850039111493,0.48188911909721793,0.011800643819573542,10.9453466012345,0.5950750249299966
89.0,20.642106972110845,0.4820548557217288,0.01179597235015635,10.944890306157067,0.595080427973283
90.0,20.6457132125334,0.48222060545665846,0.011791301868584875,10.944434043908993,0.5950857094283752
91.0,20.64931911179158,0.4823863682476454,0.011786632374724226,10.943977814568465,0.5950910006539311
92.0,20.65292466929408,0.4825521440403034,0.011781963868440033,10.943521618213707,0.5950965195177685
93.0,20.656529884449352,0.482717932780192,0.01177729634959877,10.943065454922975,0.5951020157053432
94.0,20.660134756665553,0.482883734412834,0.011772629818067626,10.942609324774569,0.5951073347461855
95.0,20.663739285350577,0.48304954888371676,0.011767964273714557,10.942153227846825,0.5951124232159062
96.0,20.667343469912055,0.4832153761382845,0.011763299716408306,10.941697164218114,0.5951172509942325
97.0,20.670947309757338,0.4833812161219395,0.011758636146018363,10.941241133966846,0.5951217263985485
98.0,20.674550804293517,0.48354706878004894,0.011753973562415112,10.940785137171465,0.5951261480362794
99.0,20.678153952927406,0.4837129340579352,0.011749311965469689,10.940329173910456,0.5951311127114046
100.0,20.681756755065557,0.48387881190088616,0.011744651355054068,10.939873244262337,0.5951367739302146
101.0,20.68535921011424,0.48404470225414714,0.011739991731041047,10.939417348305668,0.5951421744480739
102.0,20.688961317479478,0.484210605062922,0.011735333093304332,10.938961486119036,0.5951481079558677
103.0,20.692563076567012,0.4843765202723776,0.011730675441718422,10.938505657781077,0.5951539607219337
104.0,20.696164486782322,0.48454244782764366,0.011726018776158685,10.938049863370452,0.5951597098603499
105.0,20.69976554753063,0.4847083876738075,0.011721363096501422,10.937594102965868,0.5951651198226385
106.0,20.703366258216874,0.4848743397559178,0.011716708402623729,10.937138376646061,0.5951699307793585
107.0,20.70696661824574,0.4850403040189846,0.011712054694403598,10.936682684489806,0.5951740756342144
108.0,20.710566627021652,0.48520628040797703,0.01170740197171999,10.936227026575917,0.5951775158565918
109.0,20.714166283948764,0.4853722688678303,0.01170275023445263,10.935771402983239,0.5951804308914138
110.0,20.717765588430957,0.48553826934343397,0.011698099482482294,10.935315813790654,0.5951848290824748
111.0,20.72136453987187,0.4857042817796439,0.011693449715690491,10.934860259077084,0.5951900069162094
112.0,20.72496313767487,0.48587030612127574,0.011688800933959803,10.934404738921483,0.5951948621342246
113.0,20.72856138124305,0.4860363423131071,0.011684153137173608,10.933949253402842,0.5951995144005447
114.0,20.732159269979263,0.48620239029987394,0.011679506325216306,10.933493802600184,0.5952041958337628
115.0,20.735756803286076,0.4863684500262797,0.011674860497973047,10.933038386592575,0.5952091831919007
116.0,20.73935398056583,0.48653452143698256,0.011670215655330132,10.93258300545911,0.5952147555287622
117.0,20.742950801220566,0.4867006044766102,0.011665571797174616,10.932127659278922,0.5952206942917666
118.0,20.7465472646521,0.4868666990897392,0.011660928923394485,10.93167234813118,0.5952265789565413
119.0,20.750143370261966,0.4870328052209256,0.011656287033878832,10.931217072095082,0.5952324601149697
120.0,20.753739117451445,0.4871989228146732,0.011651646128517488,10.930761831249873,0.5952383104093636
121.0,20.75733450562157,0.4873650518154547,0.01164700620720131,10.93030662567482,0.5952441299177182
122.0,20.76092953417311,0.48753119216770174,0.011642367269822117,10.929851455449235,0.595250252697361
123.0,20.764524202506564,0.4876973438158115,0.011637729316272685,10.929396320652458,0.5952563879878874
124.0,20.76811851002219,0.4878635067041371,0.0116330923464466,10.928941221363868,0.5952623905756215
125.0,20.771712456119996,0.4880296807770055,0.011628456360238584,10.928486157662876,0.5952680103488291
126.0,20.775306040199712,0.4881958659786904,0.011623821357544221,10.92803112962893,0.595273022880324
127.0,20.778899261660833,0.48836206225344553,0.011619187338260013,10.927576137341509,0.5952777328563028
128.0,20.782492119902592,0.48852826954547024,0.01161455430228349,10.92712118088013,0.5952823828045897
129.0,20.78608461432396,0.48869448779894015,0.011609922249513134,10.926666260324343,0.5952871126460211
130.0,20.78967674432368,0.4888607169579851,0.011605291179848345,10.92621137575373,0.5952917888783164
131.0,20.793268509300205,0.489026956966703,0.011600661093189564,10.92575652724791,0.5952965012766015
132.0,20.796859908651776,0.4891932077691484,0.011596031989438083,10.925301714886533,0.5953011408464844
133.0,20.800450941776344,0.4893594693093486,0.01159140386849629,10.924846938749289,0.5953055875218622
134.0,20.80404160807163,0.4895257415312842,0.011586776730267466,10.924392198915893,0.5953097918856738
135.0,20.8076319069351,0.48969202437890685,0.011582150574655885,10.9239374954661,0.5953151030533663
136.0,20.811221837763973,0.48985831779612393,0.011577525401566794,10.923482828479697,0.5953208519787625
137.0,20.814811399955218,0.49002462172681166,0.011572901210906478,10.923028198036505,0.595326420836351
138.0,20.818400592905544,0.4901909361148087,0.011568278002582073,10.922573604216376,0.5953320421807462
139.0,20.821989416011423,0.4903572609039153,0.01156365577650184,10.922119047099201,0.5953374089603047
140.0,20.825577868669072,0.49052359603789797,0.011559034532574947,10.921664526764895,0.5953425637047316
141.0,20.829165950274458,0.49068994146048944,0.011554414270711558,10.921210043293415,0.5953476621849102
142.0,20.832753660223325,0.49085629711537165,0.011549794990822893,10.920755596764748,0.5953526499538859
143.0,20.836340997911126,0.49102266294621183,0.011545176692821069,10.92030118725891,0.5953579289049294
144.0,20.83992796273311,0.4911890388966275,0.011540559376619302,10.919846814855957,0.5953630583668549
145.0,20.843514554084255,0.49135542491020073,0.011535943042131683,10.919392479635972,0.5953679514424995
146.0,20.847100771359305,0.4915218209304843,0.011531327689273466,10.918938181679074,0.5953729056295314
147.0,20.850686613952753,0.4916882269009879,0.011526713317960752,10.918483921065414,0.5953774972153258
148.0,20.854272081258852,0.49185464276519175,0.01152209992811078,10.918029697875173,0.5953840773662248
149.0,20.857857172671615,0.4920210684665341,0.011517487519641774,10.917575512188566,0.595390307424205
150.0,20.861441887584803,0.492187503948426,0.0115128760924729,10.917121364085844,0.5953955511379172
151.0,20.865026225391944,0.4923539491542335,0.011508265646524423,10.916667253647283,0.5954006257273483
152.0,20.868610185486315,0.49252040402729386,0.01150365618171764,10.916213180953196,0.5954056859062428
153.0,20.87219376726096,0.4926868685109083,0.011499047697974805,10.915759146083927,0.5954107094062456
154.0,20.875776970108667,0.4928533425483428,0.011494440195219276,10.91530514911985,0.5954156243616987
155.0,20.87935979342201,0.49301982608282624,0.0114898336733754,10.914851190141377,0.5954204384348194
156.0,20.8829422365933,0.4931863190575483,0.01148522813236863,10.914397269228942,0.5954250541673224
157.0,20.88652429901462,0.49335282141567816,0.011480623572125382,10.913943386463018,0.5954296536292614
158.0,20.890105980077816,0.4935193331003372,0.011476019992573167,10.913489541924108,0.5954341895700405
159.0,20.893687279174475,0.493685854054615,0.011471417393640559,10.913035735692745,0.5954385485824758
160.0,20.89726819569598,0.4938523842215667,0.011466815775257209,10.912581967849494,0.5954428426668771
161.0,20.900848729033452,0.49401892354421845,0.011462215137353803,10.912128238474951,0.5954472821205231
162.0,20.904428878577782,0.4941854719655528,0.011457615479862076,10.911674547649742,0.595451858135279
163.0,20.908008643719633,0.4943520294285246,0.011453016802714896,10.911220895454528,0.5954562720512333
164.0,20.911588023849422,0.4945185958760538,0.011448419105846179,10.910767281969997,0.5954606088615239
165.0,20.915167018357334,0.49468517125102096,0.011443822389190976,10.910313707276869,0.5954648966837756
166.0,20.91874562663332,0.4948517554962774,0.011439226652685373,10.909860171455895,0.5954690229288208
167.0,20.922323848067105,0.4950183485546398,0.011434631896266622,10.909406674587855,0.5954731319085801
168.0,20.925901682048167,0.4951849503688905,0.011430038119873058,10.908953216753561,0.5954772928934892
169.0,20.929479127965763,0.4953515608817782,0.011425445323444116,10.908499798033858,0.5954812909340014
170.0,20.933056185208912,0.49551818003601805,0.011420853506920408,10.908046418509615,0.5954852364951901
171.0,20.936632853166408,0.49568480777428836,0.011416262670243591,10.907593078261737,0.5954888752621128
172.0,20.940209131226805,0.4958514440392405,0.011411672813356631,10.907139777371155,0.5954923653112153
173.0,20.94378501877843,0.49601808877348535,0.011407083936203447,10.906686515918834,0.5954956748508413
174.0,20.947360515209382,0.4961847419196063,0.011402496038729275,10.906233293985764,0.5954990135875855
175.0,20.95093561990754,0.4963514034201492,0.011397909120880451,10.905780111652971,0.5955027924213837
176.0,20.954510332260533,0.4965180732176271,0.01139332318260455,10.905326969001504,0.595506172275534
177.0,20.958084651655774,0.4966847512545273,0.011388738223850224,10.904873866112446,0.5955090832763537
178.0,20.961658577480456,0.49685143747329125,0.011384154244567447,10.904420803066907,0.5955120086344815
179.0,20.965232109121533,0.49701813181633797,0.011379571244496563,10.903967779946026,0.5955148959593526
180.0,20.96880524596574,0.49718483422604876,0.011374989222999201,10.903514796830963,0.595518130800615
181.0,20.972377987399582,0.4973515446447739,0.011370408180044683,10.903061853802907,0.5955214110368465
182.0,20.975950332809337,0.49751826301483165,0.011365828115604007,10.902608950943076,0.5955247561526237
183.0,20.97952228158107,0.4976849892785041,0.011361249029649812,10.902156088332715,0.595528242099285
184.0,20.98309383310061,0.49785172337804773,0.011356670922156385,10.9017032660531,0.5955317661821458
185.0,20.986664986753564,0.4980184652556791,0.011352093793099649,10.901250484185539,0.595535717561244
186.0,20.990235741925318,0.4981852148535866,0.01134751764245713,10.90079774281136,0.5955395982900076
187.0,20.993806098001038,0.49835197211392696,0.011342942470208039,10.900345042011926,0.595543375214941
188.0,20.997376054365674,0.49851873697882393,0.011338368276333182,10.899892381868627,0.5955472285154058
189.0,21.00094561040394,0.4986855093903693,0.011333795060815015,10.89943976246288,0.5955510301748359
190.0,21.004514765500343,0.4988522892906235,0.01132922282363751,10.898987183876132,0.5955551752719953
191.0,21.008083519039154,0.499019076621613,0.011324651564786454,10.898534646189857,0.5955591602905823
192.0,21.011651870404453,0.4991858713253358,0.011320081284249104,10.898082149485559,0.5955628807801691
193.0,21.015219818980064,0.49935267334375594,0.01131551198201437,10.897629693844765,0.5955663731744517
