k,PSNR,SSIM,mse,Log-Gradient,Angle
0.0,20.32042963949219,0.4673896377258154,0.0,10.985552020335119,0.5931177018594069
1.0,20.32351788054449,0.46752765735655477,0.010208288149224221,10.985157921740004,0.5946224770809353
2.0,20.32712535587298,0.46769073316247284,0.012075659096279969,10.98470217886053,0.5946367174008994
3.0,20.330754822299895,0.46785494094526875,0.012179559264909318,10.984243876541363,0.5946402531137506
4.0,20.334385181336152,0.46801922938173995,0.012184328607157338,10.983785464948886,0.5946449876232579
5.0,20.33801482402773,0.46818351770763494,0.01217948203560034,10.983327132002959,0.5946495776978408
6.0,20.34164353515945,0.46834779489406236,0.012173014205376462,10.982868904402364,0.5946537908168825
7.0,20.345271270682154,0.4685120586999439,0.01216614354291832,10.98241078823124,0.5946580241260285
8.0,20.34889801957027,0.46867630850049435,0.012159147677336718,10.981952785482749,0.5946611295478204
9.0,20.35252377865585,0.46884054406948533,0.012152115087393793,10.981494896827567,0.5946652221703658
10.0,20.356148546580457,0.4690047652898918,0.012145069615105105,10.981037122586004,0.5946705224875742
11.0,20.359772322441252,0.46916897207913005,0.012138017088006735,10.98057946299306,0.5946756147842276
12.0,20.36339510560041,0.46933316436187306,0.012130963040031487,10.980121918217598,0.59468064731463
13.0,20.367016895342335,0.46949734205860766,0.012123906291546397,10.979664488423708,0.5946856325065427
14.0,20.370637691115725,0.4696615050990171,0.012116849509980215,10.97920717372823,0.5946906537190777
15.0,20.37425749236832,0.4698256534133516,0.012109793815633844,10.978749974238825,0.5946957543921937
16.0,20.377876298593417,0.4699897869344545,0.012102739561820754,10.978292890060125,0.5947009653229214
17.0,20.381494109290887,0.47015390559578,0.01209568774419452,10.977835921285786,0.594706174588075
18.0,20.38511092396545,0.4703180093312295,0.012088638727905,10.977379068003822,0.5947114634729438
19.0,20.388726742125378,0.47048209807502755,0.012081592624710126,10.976922330299054,0.5947167425885413
20.0,20.392341563281665,0.4706461717616386,0.012074549516871164,10.97646570825394,0.5947220586039298
21.0,20.39595538694742,0.4708102303257109,0.012067509465426202,10.976009201949182,0.5947273457858508
22.0,20.399568212637405,0.4709742737020306,0.01206047251600217,10.975552811464143,0.5947326198405751
23.0,20.403180039867763,0.4711383018254926,0.012053438702935,10.975096536877164,0.5947378968306064
24.0,20.406790868155767,0.47130231463108024,0.012046408052216514,10.974640378265802,0.5947431791498585
25.0,20.41040069701968,0.47146631205385153,0.012039380583620364,10.974184335706996,0.5947484579702255
26.0,20.4140095259786,0.4716302940289179,0.012032356312248901,10.97372840927719,0.5947537457611747
27.0,20.417617354552405,0.47179426049144463,0.012025335249667615,10.973272599052432,0.594759026102098
28.0,20.42122418226167,0.4719582113766458,0.012018317404744202,10.972816905108457,0.5947643407324901
29.0,20.42483000862763,0.4721221466197658,0.0120113027842734,10.972361327520726,0.594769645067552
30.0,20.428434833172112,0.4722860661560964,0.0120042913934462,10.971905866364482,0.5947749651339401
31.0,20.432038655417557,0.4724499699209505,0.011997283236204411,10.971450521714775,0.5947803014385061
32.0,20.435641474886935,0.4726138578496782,0.011990278315510635,10.970995293646496,0.5947855748457784
33.0,20.439243291103793,0.4727777298776618,0.011983276633555135,10.970540182234387,0.594790858938058
34.0,20.442844103592197,0.47294158594030605,0.01197627819191536,10.970085187553066,0.5947961522987647
35.0,20.446443911876734,0.47310542597304633,0.01196928299167973,10.969630309677038,0.5948014340918086
36.0,20.450042715482496,0.4732692499113426,0.011962291033544301,10.9691755486807,0.5948066221930434
37.0,20.453640513935124,0.47343305769068206,0.01195530231788869,10.968720904638356,0.5948117865541939
38.0,20.457237306760724,0.47359684924657897,0.011948316844835973,10.96826637762422,0.594816896383107
39.0,20.460833093485917,0.4737606245145669,0.01194133461430022,10.967811967712418,0.5948221346124319
40.0,20.46442787363782,0.47392438343021426,0.011934355626024542,10.967357674977,0.5948273275924186
41.0,20.468021646744056,0.47408812592910404,0.011927379879611583,10.966903499491936,0.5948325994244028
42.0,20.471614412332748,0.4742518519468539,0.011920407374547984,10.966449441331125,0.594838043924471
43.0,20.4752061699325,0.47441556141910063,0.011913438110224259,10.965995500568393,0.5948435498677734
44.0,20.47879691907241,0.47457925428150577,0.011906472085951135,10.965541677277495,0.5948490681590266
45.0,20.482386659282078,0.4747429304697563,0.011899509300972623,10.965087971532117,0.5948546417825362
46.0,20.485975390091596,0.47490658991956564,0.011892549754477,10.964634383405883,0.5948601626653465
47.0,20.489563111031547,0.47507023256667313,0.011885593445605728,10.964180912972347,0.5948657610258333
48.0,20.493149821633008,0.47523385834683785,0.01187864035850912,10.963727560304983,0.594871445887392
49.0,20.496735521427553,0.47539746719584985,0.011871690289687572,10.96327432547699,0.594877130601896
50.0,20.500320209947237,0.4755610590495239,0.011864743454146464,10.962821208561712,0.594882808660488
51.0,20.50390388672463,0.4757246338436943,0.011857799851085744,10.962368209632432,0.5948883873413061
52.0,20.507486551292764,0.475888191514229,0.011850859479684667,10.961915328762368,0.5948938614252363
53.0,20.511068203185197,0.4760517319970155,0.011843922339105186,10.961462566024679,0.594899294965892
54.0,20.514648841935973,0.47621525522796876,0.011836988428494786,10.961009921492453,0.594904854024679
55.0,20.51822846707963,0.4763787611430305,0.01183005774698892,10.960557395238725,0.5949103596667799
56.0,20.5218070781512,0.4765422496781652,0.011823130293712725,10.96010498733646,0.5949157316724366
57.0,20.52538467468623,0.4767057207693703,0.011816206067782787,10.959652697858571,0.5949210281760098
58.0,20.528961256220747,0.4768691743526619,0.011809285068308502,10.959200526877895,0.5949264076502861
59.0,20.53253682229128,0.4770326103640856,0.011802367294393096,10.95874847446722,0.594932569025623
60.0,20.536111372434878,0.4771960287397143,0.011795452745134764,10.958296540699262,0.5949364768193108
61.0,20.53968490618907,0.47735942941564463,0.011788541419627298,10.957844725646684,0.5949404621396068
62.0,20.543257423091887,0.4775228123280036,0.01178163331696104,10.957393029382079,0.5949449068070224
63.0,20.54682892268188,0.47768617741294417,0.011774728436223313,10.95694145197798,0.5949493564215199
64.0,20.55039940449808,0.4778495246066426,0.011767826776499018,10.956489993506864,0.594953678684552
65.0,20.553968868080045,0.47801285384530573,0.01176092833687115,10.956038654041137,0.594957881350876
66.0,20.557537312967817,0.4781761650651702,0.011754033116421127,10.955587433653148,0.5949624522153487
67.0,20.561104738701967,0.47833945820249296,0.011747141114229075,10.955136332415181,0.594965314437749
68.0,20.564671144823542,0.47850273319356185,0.011740252329374392,10.95468535039946,0.5949716896481246
69.0,20.568236530874117,0.4786659899746972,0.011733366760935659,10.954234487678145,0.5949761060477662
70.0,20.571800896395793,0.4788292284822391,0.01172648440799116,10.953783744323331,0.5949802737718449
71.0,20.57536424093113,0.47899244865256,0.01171960526961896,10.953333120407057,0.5949842021274627
72.0,20.578926564023227,0.47915565042205893,0.011712729344897135,10.952882616001292,0.5949882353361313
73.0,20.582487865215704,0.47931883372716805,0.01170585663290387,10.952432231177944,0.5949924387423783
74.0,20.58604814405267,0.4794819985043401,0.011698987132717636,10.951981966008862,0.5949965308076729
75.0,20.589607400078762,0.47964514469005953,0.011692120843417324,10.951531820565826,0.5950010135581802
76.0,20.593165632839113,0.47980827222083827,0.011685257764082399,10.951081794920556,0.5950065935682832
77.0,20.59672284187938,0.4799713810332227,0.011678397893792844,10.950631889144706,0.5950120016764595
78.0,20.60027902674574,0.4801344710637838,0.011671541231629457,10.95018210330987,0.5950173044157331
79.0,20.60383418698487,0.48029754224911825,0.011664687776673737,10.949732437487576,0.5950226841131271
80.0,20.60738832214397,0.4804605945258576,0.01165783752800809,10.949282891749288,0.5950280997562188
81.0,20.610941431770748,0.4806236278306592,0.011650990484715818,10.948833466166407,0.5950334003989549
82.0,20.614493515413457,0.48078664210021377,0.011644146645881195,10.948384160810267,0.5950387896904966
83.0,20.618044572620832,0.48094963727123297,0.011637306010589543,10.947934975752142,0.5950442146314178
84.0,20.621594602942142,0.4811126132804686,0.011630468577927195,10.947485911063241,0.5950495220565531
85.0,20.625143605927185,0.48127557006469984,0.011623634346981649,10.947036966814704,0.5950547734063004
86.0,20.62869158112626,0.4814385075607274,0.01161680331684151,10.94658814307761,0.5950601905471901
87.0,20.63223852809021,0.48160142570539505,0.011609975486596529,10.946139439922973,0.59506557527813
88.0,20.635784446370373,0.48176432443556755,0.011603150855337726,10.945690857421742,0.5950708430451805
89.0,20.639329335518628,0.48192720368813974,0.011596329422157317,10.9452423956448,0.5950761200102358
90.0,20.64287319508737,0.48209006340004246,0.01158951118614874,10.944794054662966,0.5950814065709815
91.0,20.646416024629527,0.48225290350823724,0.011582696146406715,10.944345834546992,0.5950865930780241
92.0,20.64995782369853,0.4824157239497106,0.011575884302027276,10.943897735367564,0.5950917918276853
93.0,20.65349859184837,0.48257852466148154,0.011569075652107757,10.943449757195305,0.5950972286385482
94.0,20.657038328633533,0.4827413055806085,0.01156227019574678,10.943001900100771,0.5951026200398656
95.0,20.66057703360904,0.48290406664416846,0.011555467932044355,10.942554164154453,0.5951078060756212
96.0,20.664114706330444,0.48306680778927874,0.011548668860101727,10.942106549426773,0.5951127705695821
97.0,20.667651346353836,0.48322952895308197,0.011541872979021688,10.941659055988088,0.5951174842999364
98.0,20.671186953235818,0.4833922300727617,0.011535080287908173,10.941211683908692,0.5951218457832139
99.0,20.67472152653353,0.4835549110855202,0.011528290785866684,10.940764433258808,0.5951261778194022
100.0,20.678255065804635,0.4837175719286025,0.011521504472003995,10.940317304108593,0.5951310719690338
101.0,20.681787570607348,0.48388021253927943,0.011514721345428282,10.93987029652814,0.5951366151096804
102.0,20.685319040500396,0.484042832854856,0.011507941405249163,10.939423410587473,0.5951419047394858
103.0,20.688849475043046,0.4842054328126708,0.011501164650577628,10.938976646356549,0.5951477160574948
104.0,20.692378873795093,0.48436801235009613,0.01149439108052603,10.938530003905258,0.5951534675114132
105.0,20.695907236316884,0.4845305714045302,0.011487620694208243,10.938083483303425,0.5951591131684634
106.0,20.69943456216928,0.4846931099134066,0.011480853490739408,10.937637084620802,0.5951644558992809
107.0,20.702960850913694,0.4848556278141987,0.011474089469236256,10.937190807927077,0.5951692281343127
108.0,20.70648610211206,0.48501812504440184,0.011467328628816798,10.936744653291873,0.5951733630141166
109.0,20.710010315326866,0.48518060154155557,0.011460570968600495,10.936298620784736,0.5951768377427588
110.0,20.71353349012112,0.48534305724321963,0.011453816487708308,10.935852710475157,0.5951796839136273
111.0,20.717055626058386,0.48550549208699745,0.011447065185262511,10.935406922432547,0.595183604648485
112.0,20.72057672270276,0.4856679060105226,0.011440317060386921,10.934961256726254,0.5951886653662247
113.0,20.72409677961887,0.48583029895146784,0.011433572112206698,10.934515713425558,0.5951934905775179
114.0,20.727615796371907,0.4859926708475261,0.011426830339848495,10.934070292599667,0.5951980804449722
115.0,20.731133772527578,0.48615502163643715,0.011420091742440344,10.933624994317727,0.5952026246783175
116.0,20.734650707652147,0.48631735125596504,0.011413356319111745,10.933179818648805,0.5952073772643641
117.0,20.73816660131243,0.4864796596439192,0.011406624068993614,10.932734765661909,0.5952126054692356
118.0,20.741681453075756,0.48664194673813194,0.011399894991218332,10.93228983542597,0.595218289114063
119.0,20.745195262510038,0.48680421247647593,0.011393169084919632,10.931845028009855,0.5952240552319237
120.0,20.748708029183696,0.4869664567968583,0.011386446349232773,10.931400343482359,0.5952297916233021
121.0,20.752219752665727,0.48712867963721623,0.011379726783294413,10.930955781912207,0.5952355269821554
122.0,20.755730432525652,0.4872908809355303,0.011373010386242598,10.930511343368057,0.5952411815252571
123.0,20.75924006833356,0.4874530606298106,0.011366297157216923,10.930067027918495,0.5952470017580791
124.0,20.762748659660076,0.487615218658098,0.011359587095358286,10.929622835632037,0.5952530137820505
125.0,20.766256206076367,0.4877773549584763,0.01135288019980907,10.92917876657713,0.5952589587413063
126.0,20.769762707154165,0.4879394694690606,0.011346176469713084,10.928734820822147,0.595264687150799
127.0,20.77326816246574,0.4881015621280021,0.011339475904215591,10.928290998435395,0.5952699348092758
128.0,20.776772571583923,0.4882636328734869,0.01133277850246328,10.92784729948511,0.5952746197389288
129.0,20.780275934082088,0.4884256816437394,0.01132608426360422,10.927403724039456,0.5952791868299344
130.0,20.783778249534173,0.488587708377015,0.011319393186787973,10.926960272166525,0.5952837150833263
131.0,20.787279517514648,0.4887497130116106,0.011312705271165463,10.92651694393434,0.5952883345059604
132.0,20.790779737598562,0.4889116954858556,0.011306020515889123,10.926073739410851,0.595292874162216
133.0,20.794278909361505,0.4890736557381157,0.01129933892011271,10.925630658663941,0.5952974814108258
134.0,20.797777032379614,0.48923559370679354,0.011292660482991488,10.925187701761415,0.5953019388621498
135.0,20.801274106229602,0.48939750933032844,0.01128598520368215,10.924744868771013,0.5953062554191204
136.0,20.804770130488723,0.48955940254719804,0.01127931308134274,10.924302159760398,0.5953102802721368
137.0,20.80826510473479,0.4897212732959124,0.011272644115132771,10.923859574797163,0.5953157045621921
138.0,20.81175902854619,0.4898831215150216,0.011265978304213187,10.923417113948831,0.5953212810363966
139.0,20.815251901501842,0.49004494714311186,0.011259315647746335,10.922974777282853,0.5953266996552696
140.0,20.818743723181242,0.49020675011880627,0.011252656144895987,10.922532564866602,0.5953321442445251
141.0,20.822234493164448,0.49036853038076506,0.011245999794827322,10.922090476767387,0.5953373565936259
142.0,20.825724211032068,0.4905302878676882,0.011239346596706983,10.921648513052439,0.5953423581447305
143.0,20.829212876365272,0.49069202251830873,0.011232696549702974,10.921206673788916,0.5953473199836165
144.0,20.832700488745807,0.49085373427139745,0.011226049652984751,10.920764959043906,0.5953521477687176
145.0,20.83618704775596,0.4910154230657695,0.01121940590572315,10.920323368884423,0.5953572860505831
146.0,20.839672552978605,0.49117708884026984,0.01121276530709053,10.91988190337741,0.595362308559466
147.0,20.843157003997156,0.4913387315337876,0.011206127856260491,10.919440562589731,0.5953671123935964
148.0,20.84664040039561,0.4915003510852452,0.011199493552408233,10.918999346588183,0.5953719207889849
149.0,20.850122741758526,0.4916619474336077,0.011192862394710281,10.918558255439487,0.5953765601206835
150.0,20.85360402767103,0.49182352051787187,0.01118623438234454,10.91811728921029,0.5953815680808564
151.0,20.857084257718796,0.491985070277081,0.011179609514490398,10.917676447967166,0.5953885467916598
152.0,20.860563431488096,0.4921465966503104,0.011172987790328664,10.917235731776614,0.5953937717578658
153.0,20.86404154856575,0.4923080995766784,0.011166369209041502,10.916795140705062,0.595398684010635
154.0,20.86751860853915,0.4924695789953406,0.01115975376981252,10.916354674818859,0.5954035752611605
155.0,20.87099461099626,0.49263103484549203,0.011153141471826784,10.915914334184285,0.5954084666569021
156.0,20.874469555525614,0.49279246706636554,0.011146532314270737,10.91547411886754,0.5954132537301426
157.0,20.87794344171631,0.4929538755972307,0.011139926296332245,10.915034028934755,0.595417963810431
158.0,20.881416269158038,0.493115260377406,0.011133323417200563,10.914594064451984,0.5954225208478383
159.0,20.88488803744103,0.4932766213462387,0.011126723676066451,10.914154225485206,0.5954269446795005
160.0,20.88835874615612,0.4934379584431217,0.011120127072122043,10.913714512100325,0.5954313760085698
161.0,20.89182839489468,0.4935992716074849,0.011113533604560816,10.91327492436317,0.5954357020398783
162.0,20.89529698324871,0.4937605607787985,0.011106943272577836,10.912835462339494,0.5954398495024774
163.0,20.89876451081073,0.49392182589657757,0.011100356075369428,10.912396126094977,0.5954440416898024
164.0,20.90223097717385,0.4940830669003669,0.011093772012133471,10.911956915695223,0.5954484166937765
165.0,20.90569638193179,0.4942442837297602,0.011087191082069193,10.911517831205758,0.5954528023277345
166.0,20.909160724678806,0.4944054763243871,0.011080613284377304,10.911078872692034,0.5954570491254269
167.0,20.912624005009746,0.4945666446239227,0.011074038618259898,10.910640040219429,0.5954612216758983
168.0,20.91608622252003,0.49472778856807786,0.011067467082920545,10.910201333853239,0.5954653351491525
169.0,20.919547376805674,0.49488890809660213,0.011060898677564237,10.909762753658692,0.595469299022648
170.0,20.92300746746325,0.49505000314929487,0.011054333401397404,10.909324299700934,0.5954732704122134
171.0,20.92646649408994,0.49521107366598666,0.011047771253627901,10.908885972045036,0.5954772648814213
172.0,20.92992445628347,0.49537211958655364,0.01104121223346511,10.908447770755993,0.5954811241762299
173.0,20.93338135364217,0.49553314085091515,0.011034656340119766,10.908009695898723,0.5954849326597026
174.0,20.936837185764947,0.4956941373990256,0.011028103572804107,10.907571747538068,0.5954884157298833
175.0,20.940291952251297,0.49585510917088654,0.011021553930731872,10.907133925738792,0.5954917991224203
176.0,20.943745652701292,0.4960160561065419,0.011015007413118163,10.906696230565583,0.5954949698103102
177.0,20.947198286715583,0.4961769781460697,0.01100846401917959,10.906258662083049,0.595498152151063
178.0,20.950649853895406,0.49633787522959577,0.011001923748134326,10.905821220355726,0.5955018176530348
179.0,20.9541003538426,0.4964987472972883,0.010995386599201872,10.905383905448067,0.5955052087728973
180.0,20.957549786159568,0.4966595942893544,0.01098885257160334,10.904946717424453,0.5955080915067222
181.0,20.960998150449313,0.4968204161460445,0.010982321664241316,10.904509656349177,0.5955109370387875
182.0,20.964445446315413,0.49698121280765223,0.010975793875858649,10.904072722286452,0.5955137336375363
183.0,20.96789167336205,0.4971419842145122,0.010969269205695738,10.903635915300415,0.5955166930024822
184.0,20.971336831193973,0.4973027303070037,0.010962747652994934,10.90319923545512,0.5955198955597615
185.0,20.974780919416546,0.4974634510255432,0.01095622921700044,10.902762682814544,0.5955230306778031
186.0,20.97822393763569,0.49762414631059676,0.01094971389695835,10.90232625744259,0.5955263042335738
187.0,20.981665885457947,0.49778481610267017,0.010943201692116662,10.901889959403077,0.5955296223148695
188.0,20.985106762490425,0.497945460342313,0.010936692601725237,10.901453788759747,0.5955332047553429
189.0,20.98854656834085,0.498106078970114,0.010930186625035676,10.901017745576265,0.5955369933778706
190.0,20.99198530261752,0.4982666719267124,0.01092368376130164,10.900581829916215,0.5955406703347886
191.0,20.995422964929315,0.4984272391527828,0.010917184009778435,10.900146041843103,0.5955443390829286
192.0,20.99885955488574,0.49858778058904835,0.010910687369723253,10.899710381420356,0.5955480317563353
193.0,21.002295072096867,0.49874829617627614,0.010904193840395168,10.89927484871132,0.5955517255796349
