k,PSNR,SSIM,mse,Log-Gradient,Angle
0.0,20.32042963949219,0.4673896377258154,0.0,10.985552020335119,0.5931177018594069
1.0,20.323518189279717,0.4675276711556641,0.010209308569870634,10.985157882339964,0.5946224777233383
2.0,20.32712633401719,0.4676907770717514,0.012077873359953558,10.984702054489276,0.5946367201187116
3.0,20.33075683276642,0.4678550313972683,0.012182986269139337,10.984243621361426,0.5946402568116609
4.0,20.334388587150166,0.468019382824388,0.012188971117382439,10.98378503310411,0.5946449942228818
5.0,20.33801998816756,0.46818375059626316,0.012185339583850673,10.983326477637181,0.5946495880508607
6.0,20.341650820535246,0.4683481236903118,0.01218008571982126,10.982867981662118,0.5946538053187026
7.0,20.34528104013132,0.46851249987150284,0.012174427807387823,10.98240955126641,0.5946580447378027
8.0,20.348910635855955,0.4686768785210032,0.012168643428053792,10.981951188446844,0.5946611595080846
9.0,20.352539604466283,0.4688412594184967,0.012162821042449829,10.981492893877853,0.5946652493078977
10.0,20.356167944528462,0.4690056424528184,0.012156984488449376,10.981034667883577,0.5946705569431877
11.0,20.359795655063785,0.4691700275472108,0.012151139592065732,10.980576510702928,0.5946756569972262
12.0,20.363422735358125,0.4693344146321317,0.012145291885742879,10.980118422508749,0.594680696501986
13.0,20.36704918461913,0.469498803633817,0.012139440190471652,10.979660403469172,0.5946856893727624
14.0,20.370675002218345,0.46966319448765653,0.012133587173454695,10.979202453705147,0.5946907179611499
15.0,20.37430018752593,0.4698275871295771,0.012127733954786696,10.978744573328497,0.5946958269746173
16.0,20.37792473995717,0.46999198149805316,0.012121880888214177,10.978286762448077,0.5947010473437393
17.0,20.381548658933525,0.47015637753213957,0.012116028969124552,10.977829021161826,0.5947062652136924
18.0,20.385171943880877,0.47032077517129905,0.012110178563228336,10.977371349562093,0.5947115655380706
19.0,20.38879459422826,0.47048517435528175,0.012104329782809802,10.976913747738088,0.5947168543933615
20.0,20.392416609407,0.4706495750240373,0.012098482710670698,10.976456215776722,0.5947221823416501
21.0,20.39603798885014,0.47081397711766665,0.01209263740839999,10.975998753763191,0.594727480843754
22.0,20.399658731991938,0.47097838057636854,0.01208679392218321,10.975541361781419,0.5947327645635033
23.0,20.403278838267656,0.4711427853404124,0.012080952286920727,10.975084039914359,0.594738053679657
24.0,20.40689830711324,0.4713071913501261,0.012075112529173072,10.974626788244233,0.5947433495682902
25.0,20.41051713796522,0.47147159854586435,0.012069274669285928,10.974169606852698,0.5947486421319292
26.0,20.41413533026055,0.47163600686800383,0.012063438722936038,10.973712495820974,0.5947539430860423
27.0,20.417752883436556,0.47180041625694374,0.012057604702265167,10.973255455229943,0.5947592344218887
28.0,20.421369796930836,0.471964826653083,0.01205177261671854,10.972798485160219,0.5947645671044031
29.0,20.424986070181248,0.4721292379968216,0.012045942473669519,10.9723415856922,0.5947698860916968
30.0,20.42860170262582,0.47229365022856934,0.012040114278888367,10.971884756906126,0.5947752255741243
31.0,20.432216693702763,0.47245806328871814,0.012034288036896653,10.971427998882092,0.5947805757378499
32.0,20.435831042850438,0.4726224771176574,0.012028463751237062,10.970971311700088,0.5947858678872568
33.0,20.439444749507338,0.47278689165577803,0.012022641424680175,10.970514695440016,0.5947911664052149
34.0,20.443057813112073,0.47295130684345127,0.012016821059383745,10.970058150181705,0.5947964788078367
35.0,20.446670233103372,0.4731157226210421,0.012011002657016533,10.96960167600492,0.5948017776762101
36.0,20.45028200892005,0.47328013892890347,0.012005186218854925,10.969145272989383,0.5948069808715329
37.0,20.453893140001014,0.4734445557073783,0.011999371745858656,10.968688941214769,0.5948121603993619
38.0,20.457503625785286,0.4736089728967987,0.011993559238730755,10.968232680760718,0.5948173046815418
39.0,20.46111346571195,0.4737733904374815,0.011987748697965183,10.967776491706843,0.5948225533205683
40.0,20.464722659220197,0.47393780826973186,0.011981940123884555,10.967320374132731,0.5948277687831545
41.0,20.46833120574928,0.474102226333849,0.011976133516670786,10.966864328117943,0.5948330774227706
42.0,20.47193910473855,0.4742666445701082,0.011970328876389548,10.966408353742024,0.5948385562844755
43.0,20.47554635562743,0.4744310629187807,0.011964526203010143,10.965952451084503,0.5948440895682419
44.0,20.47915295785542,0.474595481320125,0.01195872549642168,10.965496620224888,0.5948496400985198
45.0,20.48275891086211,0.4747598997143798,0.011952926756446379,10.965040861242683,0.5948552354519058
46.0,20.486364214087153,0.474924318041779,0.011947129982850281,10.964585174217369,0.5948607773391031
47.0,20.48996886697029,0.4750887362425376,0.011941335175352345,10.964129559228423,0.5948664243043464
48.0,20.493572868951354,0.4752531542568632,0.011935542319734871,10.963674016355297,0.5948721390725032
49.0,20.49717621947023,0.4754175720249492,0.011929751211635604,10.963218545677213,0.59487784796485
50.0,20.500778917966898,0.47558198948697594,0.011923962067021517,10.962763147273604,0.594883550565609
51.0,20.504380963881413,0.47574640658311135,0.011918174885668716,10.96230782122389,0.5948891437138327
52.0,20.5079823566539,0.47591082325351003,0.011912389667332194,10.961852567607483,0.594894635564872
53.0,20.511583095724582,0.47607523943831737,0.011906606411749367,10.961397386503787,0.5949000984492742
54.0,20.515183180533757,0.47623965507766436,0.011900825118642839,10.9609422779922,0.594905709761527
55.0,20.518782610521797,0.4764040701116703,0.011895045787722745,10.960487242152109,0.5949112231426051
56.0,20.522381385129172,0.47656848448044037,0.011889268418688665,10.960032279062899,0.5949166158663393
57.0,20.525979503796417,0.4767328981240753,0.01188349301123125,10.959577388803941,0.5949219406118302
58.0,20.52957696596416,0.4768973109826568,0.011877719565033586,10.959122571454603,0.5949274131986119
59.0,20.533173771073123,0.47706172299625466,0.01187194807977225,10.958667827094247,0.5949336746666508
60.0,20.536769918564097,0.4772261341049362,0.011866178555118428,10.958213155802225,0.5949371646609162
61.0,20.54036540787797,0.47739054424874644,0.011860410990738614,10.957758557657883,0.5949413108955953
62.0,20.54396023845571,0.4775549533677275,0.011854645386295442,10.95730403274056,0.5949458194222196
63.0,20.54755440973837,0.47771936140190263,0.011848881741448212,10.956849581129587,0.5949502820147471
64.0,20.55114792116711,0.4778837682912871,0.011843120055853475,10.95639520290429,0.5949545837929707
65.0,20.554740772183155,0.4780481739758938,0.01183736032916548,10.955940898143986,0.5949589199783237
66.0,20.558332962227837,0.47821257839570835,0.01183160256103658,10.955486666927984,0.5949634666831615
67.0,20.56192449074257,0.4783769814907224,0.011825846751117572,10.955032509335586,0.594966236820207
68.0,20.565515357168856,0.4785413832009035,0.01182009289905801,10.95457842544609,0.5949728215904532
69.0,20.5691055609483,0.4787057834662151,0.01181434100450651,10.954124415338786,0.5949771766029243
70.0,20.57269510152259,0.4788701822266154,0.01180859106711093,10.953670479092947,0.5949813117070243
71.0,20.576283978333517,0.4790345794220406,0.011802843086518579,10.953216616787852,0.5949852069790702
72.0,20.579872190822957,0.47919897499242464,0.011797097062376437,10.952762828502765,0.5949894139179949
73.0,20.583459738432882,0.4793633688776929,0.01179135299433129,10.952309114316941,0.5949936110366167
74.0,20.58704662060537,0.47952776101775263,0.011785610882029927,10.951855474309632,0.5949977530538644
75.0,20.59063283678258,0.47969215135251053,0.011779870725119138,10.951401908560076,0.5950027041523596
76.0,20.594218386406787,0.47985653982185755,0.011774132523245943,10.950948417147508,0.5950082625177094
77.0,20.597803268920348,0.4800209263656778,0.011768396276057701,10.95049500015115,0.5950136612393495
78.0,20.60138748376572,0.48018531092384364,0.011762661983202118,10.950041657650223,0.5950190532253002
79.0,20.604971030385478,0.48034969343622197,0.011756929644327355,10.949588389723932,0.5950244914629773
80.0,20.608553908222266,0.4805140738426696,0.011751199259082098,10.949135196451474,0.5950299094325974
81.0,20.612136116718865,0.48067845208302834,0.011745470827115675,10.948682077912041,0.5950352668740524
82.0,20.61571765531813,0.4808428280971415,0.01173974434807804,10.948229034184816,0.5950407265205057
83.0,20.619298523463037,0.4810072018248335,0.011734019821619862,10.947776065348972,0.5950461615526603
84.0,20.62287872059666,0.48117157320592924,0.011728297247392553,10.947323171483667,0.5950515010105669
85.0,20.626458246162166,0.4813359421802357,0.011722576625048331,10.94687035266806,0.5950568550675587
86.0,20.63003709960284,0.4815003086875558,0.011716857954240245,10.946417608981296,0.5950623217063288
87.0,20.63361528036208,0.4816646726676872,0.011711141234622142,10.945964940502508,0.5950676942770207
88.0,20.637192787883375,0.481829034060419,0.011705426465848857,10.945512347310821,0.5950729918060946
89.0,20.64076962161032,0.4819933928055233,0.011699713647576103,10.945059829485352,0.5950783654474436
90.0,20.64434578098664,0.4821577488427753,0.011694002779460543,10.944607387105208,0.5950836363809121
91.0,20.647921265456148,0.48232210211193727,0.0116882938611598,10.944155020249484,0.5950888783713676
92.0,20.651496074462766,0.48248645255276007,0.011682586892332513,10.943702728997264,0.5950942636697335
93.0,20.655070207450553,0.4826508001049976,0.011676881872638243,10.943250513427627,0.595099712425517
94.0,20.65864366386365,0.4828151447083851,0.01167117880173772,10.942798373619636,0.5951050937780545
95.0,20.662216443146324,0.48297948630265636,0.011665477679292557,10.942346309652347,0.59511022554254
96.0,20.66578854474296,0.4831438248275359,0.011659778504965562,10.941894321604801,0.5951151246229861
97.0,20.66935996809804,0.4833081602227451,0.01165408127842049,10.941442409556034,0.595119735896875
98.0,20.672930712656175,0.4834724924279901,0.011648385999322218,10.940990573585069,0.5951241159590103
99.0,20.67650077786209,0.48363682138297853,0.011642692667336758,10.940538813770914,0.5951283319879704
100.0,20.68007016316063,0.4838011470274078,0.011637001282131122,10.94008713019257,0.5951340657239506
101.0,20.68363886799673,0.48396546930096607,0.011631311843373468,10.939635522929027,0.595139487610047
102.0,20.68720689181548,0.48412978814333973,0.01162562435073313,10.939183992059261,0.5951451065086443
103.0,20.69077423406207,0.4842941034942085,0.01161993880388049,10.93873253766224,0.5951509880350327
104.0,20.69434089418181,0.48445841529323924,0.011614255202487031,10.938281159816915,0.5951567275805815
105.0,20.697906871620138,0.4846227234801009,0.01160857354622545,10.937829858602228,0.5951622989857793
106.0,20.701472165822594,0.4847870279944512,0.011602893834769569,10.937378634097112,0.5951673882207266
107.0,20.705036776234866,0.4849513287759448,0.011597216067794281,10.936927486380482,0.5951718352733237
108.0,20.708600702302746,0.4851156257642284,0.011591540244975686,10.936476415531244,0.5951756473879589
109.0,20.712163943472156,0.48527991889894206,0.011585866365991045,10.936025421628294,0.5951787070673559
110.0,20.715726499189138,0.48544420811972505,0.01158019443051874,10.93557450475051,0.595181733158467
111.0,20.719288368899868,0.48560849336620837,0.01157452443823834,10.93512366497676,0.5951869110507366
112.0,20.722849552050636,0.4857727745780154,0.011568856388830559,10.934672902385902,0.5951919439653176
113.0,20.726410048087875,0.4859370516947681,0.011563190281977278,10.934222217056776,0.5951966486468949
114.0,20.729969856458123,0.4861013246560812,0.01155752611736155,10.933771609068213,0.5952012209785336
115.0,20.733528976608063,0.48626559340156333,0.011551863894667636,10.933321078499027,0.5952059560104749
116.0,20.73708740798451,0.4864298578708224,0.011546203613580889,10.932870625428022,0.5952110825484244
117.0,20.740645150034382,0.4865941180034567,0.011540545273787974,10.932420249933989,0.5952167295053465
118.0,20.744202202204765,0.4867583737390637,0.011534888874976553,10.931969952095699,0.5952226000327535
119.0,20.747758563942842,0.486922625017235,0.011529234416835621,10.93151973199192,0.5952284111734107
120.0,20.751314234695958,0.4870868717775583,0.011523581899055266,10.931069589701394,0.5952342201922344
121.0,20.75486921391157,0.48725111395961634,0.011517931321326827,10.93061952530286,0.5952399728659628
122.0,20.75842350103727,0.4874153515029864,0.011512282683342777,10.930169538875036,0.5952457709346343
123.0,20.7619770955208,0.48757958434724297,0.011506635984796803,10.929719630496628,0.5952518778436743
124.0,20.765529996810027,0.48774381243195863,0.011500991225383735,10.929269800246326,0.5952579224327887
125.0,20.769082204352944,0.48790803569670277,0.011495348404799691,10.928820048202807,0.5952637845599086
126.0,20.7726337175977,0.4880722540810334,0.011489707522741867,10.928370374444734,0.5952692019929473
127.0,20.77618453599257,0.4882364675245157,0.011484068578908737,10.927920779050753,0.5952740232861377
128.0,20.779734658985966,0.48840067596670256,0.01147843157299991,10.927471262099498,0.595278661649497
129.0,20.783284086026455,0.4885648793471485,0.011472796504716224,10.927021823669584,0.5952832437303606
130.0,20.786832816562715,0.488729077605406,0.011467163373759725,10.926572463839614,0.5952879265991716
131.0,20.790380850043604,0.4888932706810219,0.0114615321798336,10.926123182688174,0.5952925359887221
132.0,20.793928185918077,0.4890574585135339,0.011455902922642288,10.925673980293835,0.5952972053210142
133.0,20.797474823635266,0.4892216410424908,0.011450275601891395,10.925224856735152,0.5953017447120361
134.0,20.80102076264444,0.4893858182074286,0.011444650217287772,10.924775812090665,0.595306121842159
135.0,20.804566002395,0.48954998994788035,0.011439026768539397,10.924326846438898,0.5953102215148508
136.0,20.808110542336493,0.48971415620338693,0.01143340525535553,10.923877959858357,0.5953156751071788
137.0,20.81165438191863,0.48987831691347533,0.011427785677446567,10.923429152427534,0.5953213337830526
138.0,20.81519752059124,0.4900424720176753,0.011422168034524153,10.922980424224903,0.5953268371924654
139.0,20.81873995780432,0.49020662145551386,0.011416552326301156,10.922531775328926,0.5953323587362315
140.0,20.822281693008016,0.49037076516651457,0.011410938552491574,10.92208320581804,0.5953376391003117
141.0,20.82582272565261,0.4905349030902049,0.011405326712810691,10.921634715770674,0.5953427189624761
142.0,20.829363055188537,0.49069903516610275,0.01139971680697498,10.921186305265234,0.5953477428368156
143.0,20.832902681066393,0.4908631613337319,0.011394108834702096,10.920737974380112,0.5953526684487982
144.0,20.83644160273691,0.4910272815326067,0.011388502795710926,10.920289723193681,0.5953578785163622
145.0,20.83997981965098,0.4911913957022495,0.011382898689721569,10.919841551784298,0.5953629455048324
146.0,20.843517331259655,0.4913555037821709,0.011377296516455405,10.919393460230305,0.5953677840203168
147.0,20.84705413701412,0.4915196057118903,0.011371696275634906,10.918945448610021,0.5953726768697234
148.0,20.85059023636573,0.491683701430921,0.011366097966983839,10.91849751700175,0.5953772874402004
149.0,20.854125628765992,0.4918477908787713,0.011360501590227225,10.91804966548378,0.5953832575068059
150.0,20.85766031366657,0.4920118739949612,0.011354907145091232,10.917601894134378,0.5953897403774681
151.0,20.861194290519286,0.49217595071899645,0.011349314631303278,10.917154203031792,0.5953949484942729
152.0,20.864727558776117,0.49234002099039315,0.011343724048592052,10.916706592254258,0.595399932230885
153.0,20.86826011788919,0.492504084748659,0.011338135396687422,10.916259061879986,0.5954049143066834
154.0,20.871791967310802,0.4926681419333052,0.011332548675320514,10.915811611987172,0.5954098788241166
155.0,20.875323106493408,0.49283219248384524,0.011326963884223678,10.915364242653993,0.5954147272717466
156.0,20.878853534889625,0.49299623633978545,0.011321381023130518,10.914916953958604,0.595419488969979
157.0,20.882383251952227,0.4931602734406401,0.011315800091775866,10.914469745979146,0.5954240614850883
158.0,20.885912257134148,0.4933243037259172,0.01131022108989578,10.914022618793735,0.5954285717419165
159.0,20.88944054988849,0.4934883271351295,0.01130464401722762,10.913575572480475,0.5954330594252579
160.0,20.892968129668525,0.49365234360779026,0.011299068873509897,10.913128607117443,0.5954373997003987
161.0,20.896494995927682,0.49381635308341004,0.011293495658482547,10.912681722782702,0.5954415942648109
162.0,20.900021148119553,0.49398035550150216,0.01128792437188659,10.912234919554294,0.5954459337484838
163.0,20.903546585697896,0.494144350801581,0.011282355013464368,10.911788197510239,0.5954504421005268
164.0,20.907071308116638,0.4943083389231644,0.011276787582959516,10.91134155672854,0.5954548241445762
165.0,20.910595314829884,0.4944723198057617,0.011271222080116933,10.910894997287178,0.5954591250920136
166.0,20.914118605291897,0.4946362933888964,0.01126565850468276,10.910448519264115,0.5954633467832232
167.0,20.9176411789571,0.49480025961208635,0.011260096856404453,10.910002122737291,0.5954674612695728
168.0,20.921163035280117,0.49496421841484867,0.011254537135030765,10.909555807784626,0.5954714590099112
169.0,20.924684173715704,0.4951281697367083,0.011248979340311641,10.909109574484024,0.5954755763395461
170.0,20.928204593718824,0.49529211351718744,0.011243423471998455,10.908663422913358,0.595479559561612
171.0,20.931724294744583,0.495456049695809,0.011237869529843838,10.908217353150492,0.5954834726871829
172.0,20.93524327624829,0.49561997821210424,0.011232317513601667,10.90777136527326,0.5954871830219924
173.0,20.938761537685394,0.49578389900560155,0.011226767423027213,10.907325459359479,0.5954906836486524
174.0,20.942279078511557,0.4959478120158313,0.011221219257877037,10.906879635486945,0.5954939729672861
175.0,20.945795898182578,0.4961117171823275,0.011215673017909043,10.906433893733427,0.5954971236118448
176.0,20.949311996154467,0.4962756144446272,0.011210128702882441,10.90598823417668,0.595500745486316
177.0,20.952827371883394,0.49643950374226903,0.011204586312557833,10.905542656894434,0.595504362537007
178.0,20.9563420248257,0.49660338501479345,0.011199045846697082,10.905097161964395,0.5955074125943012
179.0,20.95985595443793,0.4967672582017469,0.011193507305063565,10.904651749464252,0.5955102674201822
180.0,20.963369160176782,0.49693112324267713,0.011187970687119908,10.904206419471661,0.5955131477011911
181.0,20.966881641499143,0.4970949800771319,0.011182435992133461,10.903761172064256,0.5955160306108928
182.0,20.9703933978621,0.4972588286446666,0.011176903219886994,10.903316007319644,0.5955193318771342
183.0,20.97390442872289,0.49742266888483694,0.011171372370165036,10.902870925315412,0.5955225402046771
184.0,20.97741473353896,0.49758650073720334,0.011165843442753919,10.902425926129125,0.5955258680021983
185.0,20.980924311767936,0.49775032414133347,0.011160316437441817,10.901981009838321,0.5955292719456567
186.0,20.984433162867603,0.49791413903679027,0.011154791354018603,10.90153617652052,0.5955328696460094
187.0,20.98794128629597,0.49807794536314454,0.011149268192275913,10.901091426253211,0.5955367458753295
188.0,20.9914486815112,0.49824174305998037,0.011143746952007141,10.90064675911387,0.5955405100476899
189.0,20.994955347971672,0.4984055320668664,0.011138227633007555,10.900202175179944,0.5955442408684838
190.0,20.99846128513593,0.49856931232339036,0.011132710235074013,10.899757674528853,0.5955480140234201
191.0,21.00196649246271,0.49873308376914144,0.01112719475800523,10.899313257238001,0.5955517721039051
192.0,21.00547096941095,0.49889684634371206,0.01112168120160158,10.89886892338476,0.5955558616588613
193.0,21.008974715439763,0.49906059998669816,0.011116169565665272,10.898424673046485,0.5955597257539662
