k,PSNR,SSIM,mse,Log-Gradient,Angle
0.0,21.44866463228231,0.4938907672193194,0.0,10.796235888178916,0.5219331465589139
1.0,21.451610169733364,0.49405796547347447,0.008816405274015117,10.79582159088044,0.5898113723031296
2.0,21.455416049622475,0.4942915848352563,0.01164097248518893,10.795293494831833,0.5908669361606932
3.0,21.45932900747773,0.4945362274513105,0.012112151344525198,10.79475159738307,0.591146419204968
4.0,21.463260340886716,0.49478306556171164,0.012216277857707852,10.79420733855744,0.5913386938045604
5.0,21.467195341490736,0.4950304880208776,0.012244751089053173,10.79366258710257,0.5914473028008732
6.0,21.47113045378272,0.495278087964867,0.012251442085325128,10.79311779700514,0.5915161798499945
7.0,21.475064532350633,0.49552573082697055,0.012250116246756235,10.792573114167611,0.5915818819648674
8.0,21.47899713074726,0.49577336354789964,0.012245297015442929,10.792028595566604,0.591637416696659
9.0,21.482928050835604,0.49602096211145646,0.0122387284235683,10.791484267929846,0.591685250944097
10.0,21.486857190808806,0.49626851386828114,0.012231148674408153,10.79094014553035,0.591728582729888
11.0,21.490784494650438,0.49651601192499933,0.01222296963439639,10.79039623615787,0.5917612702207206
12.0,21.494709932189842,0.49676345250533166,0.012214466599594144,10.789852543768287,0.5918049667261223
13.0,21.4986334834266,0.4970108330172129,0.012205728767992393,10.789309071219893,0.5918426549208149
14.0,21.502555135070182,0.49725815165568776,0.012196836650271813,10.788765820389564,0.5918724721054004
15.0,21.506474876368657,0.4975054069790738,0.012187800551579258,10.788222792836299,0.5919064104170515
16.0,21.510392702016908,0.49775259816951856,0.012178698295507993,10.78767998946733,0.5919380588763767
17.0,21.51430860827879,0.49799972460717257,0.012169550801844382,10.787137410959009,0.5919707821266235
18.0,21.518222590877095,0.49824678557510377,0.012160338740239878,10.786595057972239,0.5920047594107535
19.0,21.52213464709769,0.49849378058343397,0.01215108318625453,10.786052931039858,0.5920367168705724
20.0,21.52604477498261,0.4987407092305319,0.012141805560868805,10.785511030595199,0.5920657872913061
21.0,21.52995297261174,0.49898757111122816,0.012132508006156178,10.784969357021017,0.5920940552777175
22.0,21.533859238678644,0.49923436590074616,0.01212319509655447,10.784427910746082,0.592122581310459
23.0,21.537763572446842,0.49948109334580604,0.012113882383637104,10.783886691996415,0.592150749847607
24.0,21.5416659730275,0.4997277531709164,0.012104567653204962,10.783345700944682,0.5921774796125693
25.0,21.5455664394262,0.4999743450857701,0.012095247625388729,10.782804937781219,0.5922035065547074
26.0,21.549464970470453,0.500220868779138,0.012085913255938024,10.782264402729599,0.5922288047578294
27.0,21.55336156521163,0.5004673239727665,0.012076565122277786,10.781724096099332,0.592257191394427
28.0,21.55725622294503,0.5007137104145107,0.012067213032251545,10.781184018134876,0.5922846555569737
29.0,21.561148943054313,0.500960027865053,0.012057860153222046,10.780644169024809,0.592310237236101
30.0,21.565039725040798,0.5012062761047594,0.012048507030774466,10.780104548958933,0.5923370172982846
31.0,21.56892856851114,0.5014524549250716,0.012039158790281466,10.779565158096402,0.5923642627867695
32.0,21.572815473006163,0.5016985641076419,0.012029814081654053,10.779025996587205,0.5923926576033646
33.0,21.576700437992955,0.5019446034239667,0.012020471823785496,10.778487064557657,0.592420347247939
34.0,21.580583462944567,0.5021905726536272,0.012011129764566825,10.77794836211495,0.592447428686678
35.0,21.584464547330597,0.5024364715742301,0.01200178596831981,10.777409889401122,0.5924739350065719
36.0,21.588343690645164,0.5026822999616158,0.011992442643089341,10.776871646570445,0.5924997165463727
37.0,21.59222089243052,0.5029280575944398,0.011983099562081581,10.776333633772143,0.5925248314378734
38.0,21.596096152292965,0.5031737442629892,0.011973758471949793,10.775795851155346,0.5925503274656027
39.0,21.599969469852617,0.503419359760073,0.011964420496940041,10.775258298866195,0.5925757023493029
40.0,21.60384084473531,0.5036649038784309,0.011955086263710515,10.77472097705441,0.5926008481474894
41.0,21.607710276606127,0.5039103764176197,0.011945756988277269,10.774183885858465,0.5926257626714804
42.0,21.611577765124515,0.5041557771757542,0.01193643214632861,10.773647025420187,0.5926501860460842
43.0,21.615443309944062,0.5044011059502435,0.011927111000400007,10.773110395883693,0.592674407383282
44.0,21.61930691072382,0.5046463625400377,0.01191779393713893,10.772573997392525,0.5926982780191586
45.0,21.62316856714469,0.5048915467469534,0.011908481657317924,10.772037830085516,0.592722154670643
46.0,21.627028278877102,0.5051366583709377,0.011899173886591617,10.771501894092529,0.59274872522449
47.0,21.630886045556885,0.5053816972060952,0.011889870652485705,10.770966189536807,0.5927737769976268
48.0,21.634741866841868,0.5056266630501974,0.011880572209785266,10.770430716544638,0.5927984615825685
49.0,21.638595742419806,0.5058715557061718,0.011871278688137657,10.769895475247143,0.5928231099383279
50.0,21.642447671967457,0.5061163749753728,0.011861989806144849,10.769360465768942,0.5928478011483089
51.0,21.64629765514974,0.506361120657568,0.011852705169139695,10.768825688223743,0.5928726921451997
52.0,21.65014569165821,0.5066057925563983,0.011843425339284465,10.768291142738756,0.5928974500665944
53.0,21.653991781174224,0.506850390473247,0.01183414995038297,10.767756829434452,0.5929219651735101
54.0,21.657835923373607,0.5070949142080924,0.011824878975465622,10.767222748431205,0.5929465855298492
55.0,21.661678117965984,0.5073393635677389,0.011815612922106413,10.766688899853307,0.5929711462082569
56.0,21.665518364634025,0.5075837383540818,0.01180635159395667,10.766155283827475,0.5929955322062364
57.0,21.669356663080315,0.5078280383721229,0.011797095226719657,10.76562190047951,0.593019305638452
58.0,21.673193013018675,0.5080722634283037,0.011787844147601345,10.765088749934069,0.5930458188311755
59.0,21.67702741415715,0.5083164133284048,0.01177859793336639,10.764555832310469,0.5930712982046092
60.0,21.68085986621356,0.5085604878790815,0.011769356718377666,10.764023147729095,0.5930959039600797
61.0,21.684690368907958,0.5088044868876006,0.01176012040679552,10.763490696313346,0.5931217871885119
62.0,21.68851892197196,0.5090484101633416,0.011750888988405477,10.762958478188086,0.5931471760395622
63.0,21.692345525134208,0.509292257515107,0.011741662768359458,10.762426493475559,0.593171259015948
64.0,21.69617017812369,0.5095360287517866,0.011732441969572457,10.761894742296477,0.5931952235089968
65.0,21.69999288067168,0.5097797236826184,0.01172322653232682,10.761363224771518,0.5932191523072479
66.0,21.703813632511682,0.5100233421172501,0.011714016445726746,10.76083194102095,0.5932426671348311
67.0,21.707632433378574,0.510266883865578,0.011704811684176097,10.760300891164377,0.5932655817363751
68.0,21.711449283008946,0.5105103487378451,0.011695612238591307,10.75977007531989,0.5932888756095878
69.0,21.715264181142707,0.5107537365447486,0.0116864182042563,10.759239493605907,0.5933087806686074
70.0,21.71907712752202,0.5109970470973866,0.011677229593398696,10.758709146140045,0.5933309658491509
71.0,21.722888121890342,0.511240280207362,0.011668046381318267,10.758179033036981,0.593351504610561
72.0,21.72669716399502,0.511483435686594,0.011658868681044867,10.757649154412837,0.5933716614186534
73.0,21.730504253585572,0.5117265133474341,0.011649696497572535,10.75711951038321,0.5933940929049152
74.0,21.734309390405173,0.5119695130013991,0.011640529596042655,10.756590101057663,0.5934157879742855
75.0,21.738112574203036,0.5122124344609521,0.011631368059102722,10.75606092654424,0.5934378219713669
76.0,21.74191380473068,0.512455277538964,0.011622211768299626,10.755531986952006,0.5934597341739016
77.0,21.745713081744753,0.5126980420490801,0.011613060874304573,10.755003282393236,0.5934814291818044
78.0,21.749510405006216,0.5129407278055599,0.011603915506738628,10.754474812980956,0.5935028264409431
79.0,21.753305774276996,0.5131833346228666,0.011594775681405604,10.753946578825323,0.5935247433365555
80.0,21.757099189320797,0.5134258623158202,0.011585641393261072,10.753418580035296,0.5935482239418745
81.0,21.760890649903125,0.5136683106996562,0.011576512633190024,10.752890816719411,0.5935716596529667
82.0,21.76468015579383,0.5139106795902305,0.01156738943828054,10.752363288988112,0.5935926100870904
83.0,21.768467706764,0.5141529688036589,0.011558271774821308,10.751835996950254,0.593616585168144
84.0,21.772253302593775,0.5143951781579952,0.01154915943453535,10.751308940706258,0.5936404141547397
85.0,21.77603694306109,0.514637307470467,0.011540052640768681,10.750782120364356,0.5936627015805669
86.0,21.779818627944373,0.5148793565583587,0.011530951407156414,10.750255536032329,0.5936834935118865
87.0,21.783598357023727,0.5151213252392698,0.011521855715790225,10.74972918781654,0.5937052899905996
88.0,21.787376130078144,0.5153632133306335,0.01151276558361579,10.749203075822154,0.5937276143419371
89.0,21.791151946891016,0.5156050206506185,0.011503681031548564,10.748677200155225,0.5937519221336193
90.0,21.794925807250237,0.515846747018158,0.011494602082555835,10.748151560922834,0.5937749097190302
91.0,21.798697710945337,0.5160883922525131,0.011485528711038745,10.7476261582317,0.5937992291600419
92.0,21.802467657767615,0.5163299561732958,0.01147646089823331,10.747100992188145,0.5938235787058782
93.0,21.806235647511482,0.5165714386005694,0.011467398689568765,10.746576062897823,0.5938461808242911
94.0,21.8100016799735,0.5168128393548009,0.011458342082574045,10.746051370465917,0.5938684646253418
95.0,21.813765754952335,0.5170541582568442,0.011449291062835024,10.745526914996821,0.5938915224700282
96.0,21.817527872269547,0.5172953951325227,0.011440245564886407,10.745002696586447,0.5939146705794304
97.0,21.821288031733744,0.5175365498046688,0.011431205661618602,10.744478715336683,0.5939371496708566
98.0,21.825046233150115,0.5177776220952511,0.011422171362315289,10.743954971350782,0.5939595488590461
99.0,21.828802476325983,0.51801861182666,0.011413142669494251,10.743431464731515,0.5939812787219138
100.0,21.832556761070826,0.5182595188216252,0.011404119578095633,10.742908195581016,0.5940022428048188
101.0,21.836309087190603,0.5185003429025404,0.011395102008250873,10.74238516399395,0.5940234074726506
102.0,21.84005945449705,0.5187410838925643,0.011386089985804784,10.741862370069917,0.59404474436797
103.0,21.84380786280198,0.5189817416150341,0.01137708342927718,10.741339813901844,0.5940661181980436
104.0,21.847554311919186,0.5192223158936402,0.01136808236607147,10.740817495578487,0.5940871165967343
105.0,21.851298801669156,0.5194628065530885,0.011359086883446681,10.740295415199759,0.5941075710331652
106.0,21.855041331870105,0.519703213418219,0.011350096907300261,10.739773572861758,0.5941264531893401
107.0,21.858781902345168,0.5199435363144257,0.01134111244864281,10.739251968661621,0.5941444267762089
108.0,21.86252051292046,0.5201837750674878,0.011332133472562391,10.738730602695712,0.5941668517617283
109.0,21.866257163411426,0.5204239295013683,0.011323159972794757,10.738209475055532,0.5941880076514715
110.0,21.86999185364431,0.5206639994419376,0.011314191953713615,10.737688585831284,0.594205486396585
111.0,21.873724583443142,0.5209039847148306,0.011305229302905761,10.737167935102406,0.5942197352298174
112.0,21.877455352642322,0.5211438851475805,0.01129627206519583,10.736647522958492,0.5942378171731737
113.0,21.88118416108142,0.5213837005690863,0.011287320228319611,10.73612734948835,0.5942559873432426
114.0,21.884911008598486,0.5216234308073215,0.011278373857845681,10.735607414782283,0.5942747356053203
115.0,21.88863589502985,0.5218630756900952,0.011269432908280263,10.735087718925968,0.5942929796111497
116.0,21.892358820212866,0.5221026350455346,0.01126049740548892,10.734568262004203,0.5943126926395591
117.0,21.896079783986842,0.5223421087023793,0.011251567386701328,10.734049044103621,0.5943324591228956
118.0,21.899798786196747,0.5225814964902412,0.011242642860496699,10.733530065315266,0.5943535657971183
119.0,21.903515826684938,0.5228207982382544,0.01123372376584826,10.733011325721796,0.5943758084920338
120.0,21.907230905300104,0.5230600137766938,0.011224810106335692,10.732492825410676,0.5943967407194628
121.0,21.91094402189286,0.5232991429361569,0.011215901840481978,10.731974564465489,0.5944167627647654
122.0,21.91465517631975,0.5235381855479285,0.011206999030249866,10.731456542972532,0.5944369888360738
123.0,21.918364368443854,0.5237771414449157,0.011198101612167334,10.73093876101778,0.5944567496632563
124.0,21.92207159813059,0.5240160104605183,0.011189209623205815,10.730421218686448,0.5944771087402198
125.0,21.925776865241264,0.5242547924269153,0.011180323079762102,10.729903916062467,0.5944986550354051
126.0,21.92948016964095,0.5244934871769041,0.011171442031984502,10.729386853232818,0.5945198706417717
127.0,21.933181511196615,0.5247320945436456,0.011162566503354687,10.72887003028595,0.5945407915972963
128.0,21.93688088977636,0.5249706143607898,0.011153696425009902,10.728353447303876,0.594564254493239
129.0,21.940578305261617,0.5252090464649696,0.01114483182132676,10.727837104370643,0.5945876349902264
130.0,21.944273757523824,0.5254473906902257,0.011135972718038047,10.727321001569145,0.5946096162878584
131.0,21.947967246439063,0.5256856468714438,0.01112711912457976,10.726805138985384,0.5946331805963316
132.0,21.951658771887832,0.5259238148442015,0.01111827110189904,10.726289516706991,0.5946560239682861
133.0,21.95534833376152,0.5261618944462656,0.01110942859542582,10.725774134817925,0.5946781527801343
134.0,21.95903593193998,0.5263998855134802,0.01110059159896147,10.725258993399542,0.5947007921954406
135.0,21.962721566302182,0.5266377878818742,0.011091760041968586,10.7247440925282,0.5947240504695707
136.0,21.966405236727446,0.5268756013869523,0.01108293381126422,10.72422943228021,0.5947488030567837
137.0,21.970086943104512,0.5271133258660526,0.011074113113162266,10.72371501273524,0.594771707086733
138.0,21.973766685322364,0.5273509611565638,0.011065297907154926,10.72320083397306,0.5947928000060282
139.0,21.977444463271375,0.5275885070960472,0.011056488252402786,10.7226868960751,0.5948131651408469
140.0,21.981120276845978,0.527825963522841,0.011047684133847454,10.722173199121539,0.5948368322905154
141.0,21.984794125943527,0.5280633302758094,0.011038885533384871,10.721659743193738,0.594860772565314
142.0,21.988466010465146,0.5283006071944848,0.011030092506606942,10.721146528373426,0.5948821083369358
143.0,21.992135930325215,0.5285377941218435,0.01102130496370952,10.720633554736391,0.5949011847672222
144.0,21.99580388542755,0.5287748908980593,0.011012522942852963,10.72012082235863,0.5949203226112161
145.0,21.999469875674237,0.5290118973629844,0.01100374630520406,10.71960833131277,0.5949407117970148
146.0,22.003133900971733,0.5292488133570602,0.010994975249012835,10.719096081679227,0.5949605262390609
147.0,22.00679596122725,0.5294856387209702,0.010986209789402802,10.71858407353835,0.5949800036336365
148.0,22.010456056348705,0.5297223732955371,0.010977449851953066,10.71807230696655,0.5950009397726301
149.0,22.01411418624978,0.5299590169228142,0.0109686955208414,10.717560782043584,0.5950225358585813
150.0,22.017770350846064,0.5301955694450805,0.010959946753118502,10.717049498844254,0.5950441707970366
151.0,22.021424550052263,0.5304320307043332,0.010951203576334813,10.716538457445399,0.5950645314682844
152.0,22.025076783786915,0.5306684005433802,0.010942466038263425,10.716027657925492,0.5950827998863443
153.0,22.028727051970854,0.5309046788056208,0.01093373410623252,10.715517100362103,0.595101302479552
154.0,22.032375354530195,0.5311408653355539,0.010925007792302634,10.715006784832065,0.5951207132567371
155.0,22.036021691394833,0.5313769599783559,0.0109162871180804,10.714496711412767,0.5951390466404531
156.0,22.03966606249255,0.5316129625786394,0.010907572125954947,10.713986880182254,0.5951569377726021
157.0,22.043308467750997,0.5318488729812242,0.010898862775703823,10.713477291214913,0.5951739988344252
158.0,22.04694890710158,0.5320846910314457,0.010890159088299774,10.712967944585285,0.5951906874885321
159.0,22.05058738047721,0.5323204165749338,0.01088146106661252,10.712458840368575,0.5952071378236392
160.0,22.054223887813368,0.5325560494577765,0.010872768746146044,10.711949978641394,0.5952232783112702
161.0,22.057858429047613,0.5327915895264942,0.010864082133579193,10.711441359480176,0.595238243542763
162.0,22.061491004119258,0.5330270366277804,0.010855401162909872,10.710932982958225,0.5952508779822813
163.0,22.065121612971502,0.5332623906093209,0.010846725801507195,10.710424849146746,0.5952643583717421
164.0,22.068750255547712,0.5334976513188131,0.010838056126311725,10.709916958120107,0.595278659360765
165.0,22.07237693179247,0.5337328186041942,0.010829392169461834,10.709409309952438,0.5952943788204887
166.0,22.076001641652184,0.5339678923137625,0.010820733909577747,10.708901904717425,0.5953118388750847
167.0,22.079624385075412,0.5342028722962272,0.010812081356930427,10.708394742488474,0.5953287088136382
168.0,22.08324516201328,0.5344377584007843,0.010803434519900077,10.70788782333854,0.595347543008053
169.0,22.086863972418605,0.5346725504763894,0.010794793381676597,10.707381147339873,0.5953611915910951
170.0,22.090480816244877,0.5349072483722129,0.010786157917123862,10.706874714563124,0.5953804010030603
171.0,22.09409569344843,0.535141851938498,0.010777528126000462,10.706368525080059,0.5953980057895277
172.0,22.097708603985424,0.5353763610255053,0.010768903921121953,10.705862578959415,0.5954156788622541
173.0,22.101319547815148,0.535610775484121,0.010760285365603094,10.705356876271958,0.5954312520753088
174.0,22.104928524898362,0.5358450951656462,0.010751672440378151,10.704851417086632,0.5954477228895685
175.0,22.108535535198687,0.5360793199218253,0.010743065197096047,10.704346201473498,0.5954648015437752
176.0,22.112140578685526,0.5363134496056364,0.010734463611090258,10.703841229502249,0.5954814777456595
177.0,22.115743655326995,0.5365474840696626,0.010725867747480678,10.703336501243841,0.5954968961933419
178.0,22.119344765093025,0.5367814231668575,0.01071727757251318,10.702832016768017,0.5955115657834372
179.0,22.12294390795543,0.5370152667505691,0.010708693093350062,10.702327776144264,0.5955277718594859
180.0,22.126541083887595,0.5372490146744838,0.010700114307979207,10.701823779441664,0.5955433509263236
181.0,22.13013629286391,0.5374826667925382,0.010691541205949732,10.70132002672877,0.5955602671122596
182.0,22.1337295348619,0.537716222959231,0.010682973831279365,10.700816518074873,0.5955727362620945
183.0,22.137320809860988,0.5379496830294288,0.010674412184329437,10.700313253548945,0.5955907829564897
184.0,22.140910117842488,0.5381830468583928,0.010665856264885972,10.699810233219631,0.5956114929620725
185.0,22.144497458785608,0.5384163143015199,0.010657305996296624,10.699307457152342,0.595633632794439
186.0,22.14808283267039,0.5386494852141693,0.01064876137729042,10.698804925411787,0.5956514984055507
187.0,22.15166623948351,0.5388825594527024,0.010640222456356652,10.698302638065032,0.5956684011153811
188.0,22.155247679195142,0.5391155368705682,0.010631689133056456,10.697800595176675,0.5956863290072685
189.0,22.15882715178055,0.5393484173227753,0.010623161297961923,10.697298796808516,0.5957032708734199
190.0,22.1624046572311,0.5395812006666786,0.01061463911312454,10.6967972430256,0.5957194904361751
191.0,22.16598019554084,0.5398138867601444,0.010606122577041372,10.69629593389177,0.5957365172807786
192.0,22.169553766706272,0.5400464754614941,0.010597611735294866,10.695794869472888,0.5957557479238774
193.0,22.17312537072474,0.540278966629185,0.010589106566824857,10.695294049833993,0.59577728903923
