k,PSNR,SSIM,mse,Log-Gradient,Angle
0.0,21.44866463228231,0.4938907672193194,0.0,10.796235888178916,0.5219331465589139
1.0,21.451611062078143,0.49405801612955474,0.008819075940825002,10.795821465361438,0.5898113774575189
2.0,21.45541898732729,0.49429175695049415,0.011647108777617939,10.795293083759073,0.590866924784643
3.0,21.459335176155196,0.494536595216795,0.01212190865114461,10.794750736476631,0.5911463069631436
4.0,21.46327093172699,0.49478370387055765,0.012229709215788547,10.794205862779808,0.5913386519020479
5.0,21.46721154679053,0.4950314719777968,0.012261874028500076,10.793660331227649,0.5914472472117046
6.0,21.471153465868973,0.49527949276278793,0.01227226177351051,10.793114595756213,0.5915161912521898
7.0,21.475095543230893,0.4955276317057966,0.01227463302129934,10.792568802262439,0.5915819166781948
8.0,21.479037331973615,0.4957758357782372,0.012273509067479791,10.792023007734924,0.5916374983356227
9.0,21.48297863344154,0.496024080986915,0.012270632840572379,10.791477238922218,0.5916853530093734
10.0,21.486919345277187,0.49627235470135295,0.012266741986986362,10.790931510122766,0.5917288434655771
11.0,21.49085941089431,0.4965206500446115,0.012262248019957659,10.790385829154562,0.5917613068634734
12.0,21.49479879954083,0.496768963255331,0.012257425962970565,10.789840200003434,0.5918052231301406
13.0,21.498737490627494,0.49701729175530146,0.012252364912244707,10.789294625558597,0.591843541421479
14.0,21.502675470268173,0.4972656337524843,0.012247145257510859,10.788749107729048,0.5918730064967913
15.0,21.506612727111367,0.4975139878174633,0.01224177731861546,10.788203648106387,0.5919070504479832
16.0,21.51054925524658,0.49776235314379824,0.012236338743568944,10.787658247631555,0.5919387650990792
17.0,21.514485050330826,0.49801072912276095,0.012230850455406107,10.787112907014798,0.59197157753008
18.0,21.518420107477,0.4982591150479989,0.012225293175281326,10.786567626951356,0.5920056748224659
19.0,21.52235442335781,0.4985075104396998,0.01221968791718142,10.786022408008911,0.5920378440664047
20.0,21.526287995398746,0.49875591490569754,0.012214056024623091,10.785477250656417,0.5920670976617667
21.0,21.53022082106219,0.4990043280500385,0.01220839968497587,10.78493215531222,0.5920954892532456
22.0,21.534152898420032,0.49925274955652554,0.012202723414406546,10.784387122441535,0.5921241670497269
23.0,21.538084226112773,0.4995011791801764,0.01219704273820105,10.783842152307187,0.5921524957347544
24.0,21.542014802626348,0.49974961665333506,0.012191355467818837,10.783297245118817,0.5921794498196588
25.0,21.545944626339764,0.4999980616932593,0.012185658359501726,10.78275240110404,0.5922057798732027
26.0,21.549873695451268,0.5002465139957736,0.012179942403520905,10.782207620523822,0.592231006220331
27.0,21.553802008380735,0.5004949732893161,0.012174208136437902,10.781662903725717,0.5922596359462098
28.0,21.557729563788616,0.5007434393278372,0.012168465314738858,10.781118250992645,0.5922873473074397
29.0,21.561656360422283,0.5009919118777713,0.012162717098577419,10.780573662552513,0.5923132598168047
30.0,21.56558239714448,0.5012403907248612,0.012156964043190067,10.780029138634365,0.5923398668479375
31.0,21.569507672921503,0.5014888756655553,0.012151211257348958,10.779484679436985,0.5923674411625225
32.0,21.57343218665182,0.5017373664861439,0.01214545740904934,10.77894028515024,0.5923960679376645
33.0,21.577355937157975,0.5019858629623261,0.012139701427269561,10.778395955940518,0.592424027493062
34.0,21.58127892326709,0.5022343648775466,0.012133941102882488,10.777851691955549,0.5924513917656885
35.0,21.585201143800102,0.5024828720128481,0.012128174452525089,10.77730749337858,0.592478138617622
36.0,21.589122597600618,0.5027313841471205,0.01212240370768524,10.776763360405088,0.5925042036500843
37.0,21.59304328355809,0.5029799010616708,0.012116628629853885,10.776219293226088,0.592529604231767
38.0,21.596963200624298,0.5032284225490046,0.01211085096870044,10.775675292032473,0.5925552794737633
39.0,21.600882347763275,0.5034769484039573,0.012105071822330535,10.77513135701263,0.5925808925880852
40.0,21.60480072394082,0.503725478420502,0.01209929179914222,10.774587488359186,0.5926062490479539
41.0,21.60871832816123,0.5039740123992736,0.01209351213101007,10.774043686253691,0.5926314640652875
42.0,21.61263515942172,0.5042225501391467,0.01208773235050422,10.773499950881085,0.5926562488274244
43.0,21.616551216711095,0.5044710914378161,0.012081951700202813,10.772956282428991,0.5926808255429006
44.0,21.620466499021056,0.5047196360940318,0.012076170476760757,10.772412681085415,0.5927051230751657
45.0,21.62438100536292,0.5049681839089685,0.012070389504484962,10.771869147033053,0.5927291142342942
46.0,21.62829473473697,0.5052167346818474,0.012064608393729685,10.771325680446848,0.5927556827462265
47.0,21.632207686106035,0.5054652882054934,0.01205882723203611,10.77078228149513,0.5927815829961726
48.0,21.63611985845329,0.5057138442760337,0.012053046279025854,10.770238950349686,0.5928065861981756
49.0,21.64003125078958,0.50596240269433,0.01204726566339573,10.769695687187362,0.5928315668339411
50.0,21.64394186211281,0.5062109632593147,0.01204148509743613,10.769152492178655,0.5928566883025069
51.0,21.647851691407315,0.5064595257679122,0.012035704227187126,10.768609365483805,0.5928819350993213
52.0,21.65176073768182,0.5067080900205754,0.01202992355571964,10.76806630727683,0.5929069766287024
53.0,21.65566899993329,0.5069566558151771,0.012024142761055998,10.767523317725274,0.5929318596764702
54.0,21.65957647715061,0.5072052229476154,0.012018361801433087,10.766980396996967,0.592956822398547
55.0,21.66348316835469,0.5074537912203688,0.012012581174210592,10.7664375452639,0.5929816856144808
56.0,21.6673890725383,0.5077023604306721,0.012006800721371919,10.765894762700757,0.5930062429537922
57.0,21.67129418871079,0.5079509303782858,0.012001020631984454,10.765352049481878,0.5930317344432704
58.0,21.675198515891495,0.5081995008641621,0.011995241255629108,10.764809405780662,0.5930582007711289
59.0,21.67910205309154,0.5084480716880598,0.011989462172095981,10.764266831764521,0.5930835316865554
60.0,21.683004799330284,0.5086966426504643,0.011983683538138262,10.763724327604184,0.5931084353487246
61.0,21.686906753627767,0.5089452135519726,0.01197790525553477,10.763181893472796,0.5931358899638579
62.0,21.69080791501078,0.5091937841944537,0.011972127339667774,10.762639529544545,0.5931601586235502
63.0,21.694708282505797,0.5094423543796603,0.011966349959671019,10.762097235992881,0.5931845847736428
64.0,21.698607855135535,0.5096909239086246,0.0119605734280817,10.761555012989282,0.593208881016093
65.0,21.702506631923036,0.5099394925823932,0.011954797714235015,10.76101286070532,0.5932332587550476
66.0,21.70640461189167,0.5101880602019971,0.011949022755725206,10.7604707793129,0.59325716592604
67.0,21.710301794064534,0.5104366265684038,0.011943248616204641,10.759928768982865,0.5932808038889453
68.0,21.714198177463878,0.5106851914824496,0.011937475167371439,10.75938682988592,0.5933015702240124
69.0,21.718093761113913,0.5109337547451402,0.011931702594154115,10.758844962192644,0.5933248033273681
70.0,21.721988544038595,0.5111823161573937,0.01192593084574007,10.75830316607359,0.5933472481373079
71.0,21.725882525261653,0.511430875520314,0.011920159938265174,10.757761441696626,0.5933678105588891
72.0,21.729775703808706,0.5116794326349425,0.011914389979621604,10.757219789231305,0.5933897677320955
73.0,21.73366807870565,0.5119279873023365,0.011908620978889551,10.756678208846987,0.5934114341296449
74.0,21.73755964896918,0.512176539322243,0.011902852701749452,10.756136700706232,0.5934336281443602
75.0,21.741450413620946,0.5124250884950765,0.0118970852617562,10.755595264971008,0.5934559850752769
76.0,21.745340371683312,0.5126736346213875,0.011891318488515304,10.755053901805978,0.5934780922106057
77.0,21.74922952218228,0.5129221775020744,0.011885552658407015,10.754512611378438,0.59350015777041
78.0,21.753117864145516,0.5131707169382281,0.011879787723986462,10.753971393857386,0.5935225587208397
79.0,21.757005396599133,0.5134192527306758,0.011874023745557228,10.753430249407767,0.5935463541289125
80.0,21.76089211857053,0.5136677846803901,0.011868260754888962,10.752889178195455,0.593570558882674
81.0,21.764778029086024,0.513916312588324,0.011862498737149629,10.752348180385084,0.5935932535230524
82.0,21.768663127175138,0.5141648362556935,0.0118567377407117,10.751807256144316,0.5936164285698634
83.0,21.772547411866586,0.514413355483678,0.011850977689347012,10.7512664056376,0.5936411705644616
84.0,21.776430882196358,0.5146618700749231,0.011845218443177078,10.750725629023611,0.5936651394993785
85.0,21.780313537195198,0.5149103798306766,0.01183946020984773,10.750184926468819,0.5936848830558008
86.0,21.784195375892796,0.5151588845519849,0.011833702976604578,10.74964429813837,0.5937075856084005
87.0,21.78807639731939,0.5154073840399459,0.011827946757000222,10.74910374419765,0.5937307054108
88.0,21.791956600499972,0.5156558780947277,0.011822191540054755,10.748563264809281,0.5937562371912884
89.0,21.795835984465782,0.5159043665174871,0.011816437376431217,10.748022860139514,0.5937795958588895
90.0,21.79971454824887,0.5161528491094663,0.011810684272801962,10.747482530354796,0.5938052426613037
91.0,21.803592290880793,0.5164013256718347,0.011804932194770003,10.746942275621581,0.5938296411086542
92.0,21.80746921139351,0.5166497960057721,0.011799181145865648,10.746402096106149,0.593852018199451
93.0,21.811345308819988,0.5168982599125531,0.01179343115916004,10.745861991974483,0.5938747412036783
94.0,21.815220582193483,0.5171467171934577,0.011787682232897239,10.745321963392414,0.5938986482826685
95.0,21.819095030557154,0.517395167651873,0.011781934345713448,10.744782010521966,0.5939221033081866
96.0,21.822968652961837,0.5176436110928941,0.011776187458865784,10.7442421335217,0.5939456207165758
97.0,21.826841448441733,0.5178920473178246,0.011770441641735267,10.743702332556973,0.593968922495756
98.0,21.830713416031337,0.518140476127985,0.011764696898334748,10.74316260779298,0.5939910214062194
99.0,21.834584554765534,0.5183888973246983,0.01175895322525399,10.742622959394728,0.5940122217946234
100.0,21.838454863677036,0.51863731070902,0.011753210596439589,10.742083387523603,0.5940359727812361
101.0,21.842324341796235,0.518885716081534,0.011747468963113036,10.741543892339006,0.594057789286942
102.0,21.846192988157263,0.5191341132433631,0.011741728337136974,10.741004474003734,0.5940778576294033
103.0,21.850060801788374,0.519382501994805,0.011735988601724569,10.740465132663736,0.5940977594267768
104.0,21.85392778172618,0.5196308821372955,0.011730249913443036,10.73992586848334,0.5941186203370648
105.0,21.857793927005904,0.5198792534721765,0.011724512239507935,10.73938668162521,0.5941379894124764
106.0,21.861659236660543,0.52012761580068,0.011718775553831166,10.738847572250076,0.5941614464961464
107.0,21.865523709727235,0.5203759689242383,0.011713039863923514,10.738308540520517,0.5941842123557525
108.0,21.869387345232827,0.5206243126425264,0.011707305103814238,10.737769586593934,0.5942040860803229
109.0,21.873250142208853,0.5208726467560069,0.01170157131128187,10.73723071062824,0.594220382396659
110.0,21.87711209968334,0.5211209710645711,0.011695838382898616,10.7366919127675,0.5942366786172314
111.0,21.880973216693114,0.5213692853697028,0.011690106391193162,10.736153193167095,0.5942571076398019
112.0,21.884833492279604,0.5216175894741808,0.011684375262644138,10.735614551982156,0.5942762416878918
113.0,21.888692925480125,0.5218658831793671,0.0116786450577898,10.735075989369372,0.5942956642446892
114.0,21.892551515330155,0.522114166286308,0.011672915794569973,10.734537505483353,0.594316111594243
115.0,21.89640926086156,0.5223624385955027,0.011667187447427138,10.733999100474545,0.5943364438874625
116.0,21.90026616110931,0.5226106999082014,0.011661460072700202,10.733460774498273,0.5943574268179642
117.0,21.904122215109023,0.5228589500257449,0.011655733693176332,10.732922527712715,0.5943788500519785
118.0,21.90797742189418,0.5231071887488892,0.011650008241925044,10.73238436026952,0.5944007189182124
119.0,21.91183178050175,0.5233554158790151,0.011644283735237413,10.73184627232467,0.5944221032675446
120.0,21.91568528996897,0.5236036312175684,0.011638560118286512,10.731308264030394,0.5944440965639767
121.0,21.919537949337805,0.5238518345663093,0.011632837462431518,10.730770335542829,0.5944654781952311
122.0,21.923389757655567,0.5241000257284606,0.01162711569560445,10.730232487017348,0.5944864194031086
123.0,21.92724071396912,0.5243482045070719,0.011621394887104031,10.729694718610014,0.594507231517496
124.0,21.931090817319255,0.5245963707036473,0.011615675001361112,10.729157030473568,0.5945298227711384
125.0,21.934940066749796,0.5248445241201105,0.011609956135802924,10.728619422767105,0.5945530527358508
126.0,21.93878846130486,0.5250926645583475,0.01160423830220501,10.728081895650119,0.594576887597397
127.0,21.942636000029594,0.5253407918211436,0.011598521402825404,10.727544449274607,0.5945982099785887
128.0,21.946482681975805,0.5255889057123171,0.011592805520137028,10.727007083797671,0.5946233556078494
129.0,21.950328506185365,0.5258370060334846,0.011587090626929123,10.726469799372703,0.5946472500293164
130.0,21.954173471704635,0.526085092586846,0.011581376776916149,10.725932596159513,0.5946704842096516
131.0,21.958017577586354,0.5263331651757733,0.011575663993900755,10.725395474317063,0.5946935295475728
132.0,21.961860822883395,0.5265812236037812,0.01156995224860841,10.724858434002698,0.5947189240717914
133.0,21.965703206639347,0.5268292676728097,0.011564241509932547,10.72432147536966,0.594743005587131
134.0,21.969544727891094,0.5270772971838746,0.011558531603846229,10.723784598563064,0.5947677626291092
135.0,21.9733853856833,0.5273253119387915,0.011552822687751492,10.723247803738294,0.5947902955092125
136.0,21.977225179062764,0.5275733117398809,0.011547114795298723,10.722711091047575,0.5948113086288959
137.0,21.98106410707561,0.5278212963892097,0.011541407937541062,10.722174460646292,0.5948377243722534
138.0,21.984902168768492,0.5280692656888908,0.011535702164814416,10.721637912690179,0.5948623339320024
139.0,21.98873936318921,0.5283172194412614,0.011529997411062606,10.721101447334693,0.5948844765753573
140.0,21.99257568938943,0.528565157449295,0.011524293725384544,10.720565064736535,0.5949045330086408
141.0,21.996411146426862,0.5288130795174857,0.011518591135210553,10.720028765052154,0.5949254606331672
142.0,22.000245733358934,0.5290609854504323,0.011512889571899507,10.719492548432823,0.5949469290640664
143.0,22.004079449232794,0.5293088750503037,0.011507188924869701,10.718956415025774,0.5949671064096276
144.0,22.00791229309649,0.5295567481191997,0.011501489332305171,10.718420364985862,0.5949884912006
145.0,22.0117442639993,0.5298046044594061,0.011495790876358731,10.717884398470979,0.5950094717597647
146.0,22.015575360988745,0.530052443872893,0.011490093486678673,10.717348515635477,0.5950316804257427
147.0,22.01940558311651,0.5303002661626176,0.011484397238800268,10.716812716636802,0.5950539168065894
148.0,22.023234929434533,0.5305480711313838,0.011478702105211132,10.716277001629283,0.5950743197940319
149.0,22.027063398993214,0.5307958585815403,0.011473008097911033,10.71574137076703,0.5950936536429031
150.0,22.030890990843464,0.531043628315567,0.011467315260999932,10.71520582420692,0.5951145429653549
151.0,22.03471770403747,0.5312913801363616,0.01146162357664716,10.714670362105545,0.5951344082599991
152.0,22.038543537630233,0.5315391138473587,0.01145593305359621,10.714134984618855,0.5951542251559517
153.0,22.04236849068073,0.5317868292527895,0.01145024371750056,10.713599691903866,0.5951739296230197
154.0,22.046192562243128,0.5320345261557031,0.011444555608890409,10.713064484118545,0.5951931097376452
155.0,22.050015751370626,0.5322822043591157,0.0114388687146456,10.712529361418955,0.5952116615484059
156.0,22.05383805711675,0.5325298636660608,0.011433183019279381,10.711994323958756,0.5952293161574329
157.0,22.057659478536156,0.5327775038796264,0.011427498560793732,10.711459371894529,0.5952456583513615
158.0,22.061480014683518,0.5330251248029059,0.011421815329015803,10.710924505383266,0.5952595035973627
159.0,22.06529966461384,0.5332727262390214,0.011416133283238367,10.710389724580327,0.5952735710098005
160.0,22.069118427383152,0.5335203079912562,0.011410452476941653,10.709855029642135,0.5952880877807935
161.0,22.072936302050266,0.5337678698634397,0.011404772864592539,10.709320420722515,0.5953038525878415
162.0,22.076753287671483,0.5340154116589488,0.011399094544907843,10.70878589797909,0.5953231904670334
163.0,22.08056938330253,0.534262933181042,0.011393417511878967,10.708251461568377,0.5953415378071392
164.0,22.084384588000564,0.5345104342332262,0.011387741721953535,10.70771711164527,0.5953602066438142
165.0,22.08819890082229,0.5347579146189658,0.01138206721069406,10.707182848366752,0.5953798718325823
166.0,22.092012320824765,0.5350053741417091,0.011376393996940978,10.706648671890445,0.595399752694128
167.0,22.095824847065643,0.5352528126039927,0.011370722029268268,10.706114582371745,0.5954174147620137
168.0,22.099636478601766,0.535500229809085,0.011365051255197899,10.705580579963677,0.5954348882326916
169.0,22.103447214488675,0.5357476255601652,0.011359381702670172,10.705046664821422,0.5954503598034023
170.0,22.10725705378212,0.5359949996603685,0.011353713352144525,10.704512837100296,0.595467287135307
171.0,22.11106599554048,0.5362423519135067,0.011348046236732313,10.703979096955981,0.5954842836575849
172.0,22.11487403882062,0.5364896821231021,0.011342380335740181,10.703445444542607,0.595499022130206
173.0,22.118681182684252,0.5367369900935391,0.011336715698907788,10.70291188001634,0.5955165411546891
174.0,22.122487426192166,0.5369842756289636,0.011331052367879398,10.702378403534203,0.5955332887005886
175.0,22.126292768404188,0.5372315385332987,0.011325390329715785,10.701845015252715,0.5955503732460248
176.0,22.130097208380434,0.5374787786104899,0.011319729580126128,10.701311715328083,0.5955680219448808
177.0,22.13390074518069,0.5377259956645039,0.011314070109113316,10.700778503916194,0.5955857578547769
178.0,22.137703377864497,0.5379731894992378,0.011308411933491615,10.700245381173225,0.5956057903215537
179.0,22.14150510549284,0.5382203599188159,0.011302755088389642,10.699712347256213,0.5956240226639656
180.0,22.145305927126987,0.5384675067274212,0.011297099575776614,10.699179402322168,0.5956410148156794
181.0,22.149105841828437,0.5387146297292283,0.011291445382068539,10.698646546527643,0.595657351255407
182.0,22.1529048486575,0.5389617287286096,0.011285792454071172,10.698113780026826,0.5956725378791398
183.0,22.15670294666817,0.5392088035288464,0.011280140774939619,10.697581102972434,0.5956914237668419
184.0,22.16050013492168,0.5394558539341374,0.011274490411345216,10.697048515520788,0.595710755147556
185.0,22.16429641245767,0.5397028797448814,0.011268841223517847,10.696516017824681,0.5957315766487502
186.0,22.168091778325124,0.539949880763654,0.011263193210107315,10.695983610036834,0.595752951992284
187.0,22.17188623158688,0.5401968567949952,0.01125754647386427,10.695451292311901,0.5957712184155131
188.0,22.17567977130562,0.5404438076433068,0.01125190102338432,10.694919064805193,0.595790752811051
189.0,22.179472396543428,0.5406907331128418,0.01124625685302305,10.694386927671935,0.5958108073229895
190.0,22.183264106363506,0.540937633008156,0.011240613986149664,10.693854881067562,0.5958310452986916
191.0,22.187054899824396,0.5411845071329121,0.011234972395750468,10.693322925144635,0.5958513024290628
192.0,22.19084477599088,0.54143135529191,0.011229332093329563,10.692791060058928,0.5958716590043657
193.0,22.194633733928182,0.5416781772900465,0.011223693093037617,10.69225928596666,0.5958931202842813
194.0,22.198421772701312,0.5419249729321683,0.011218055376829194,10.691727603023278,0.595914840772305
