k,PSNR,SSIM,mse,Log-Gradient,Angle
0.0,21.44866463228231,0.4938907672193194,0.0,10.796235888178916,0.5219331465589139
1.0,21.451610450126335,0.49405798139065277,0.008817244452129655,10.795821551439804,0.5898113739227427
2.0,21.455416972651115,0.49429163891407746,0.01164290046051874,10.795293365672572,0.590866932605953
3.0,21.4593309455522,0.49453634299618693,0.01211521671670838,10.794751326903736,0.5911463840284353
4.0,21.463263668092306,0.4947832660927835,0.012220497055614463,10.79420687492928,0.5913386806948941
5.0,21.467200432182626,0.49503079711987263,0.012250129381585411,10.793661878448384,0.5914472854010642
6.0,21.471137682247683,0.4952785292363197,0.012257980855971866,10.793116791442644,0.5915161833639285
7.0,21.475074272697164,0.49552632788520934,0.012257815361248722,10.79257175982362,0.5915818925977251
8.0,21.47900975686284,0.4957741400119575,0.012254155665181286,10.792026840582537,0.59163744244715
9.0,21.482943936366866,0.4960219416026656,0.012248745453432188,10.791482060464517,0.5916852830395632
10.0,21.486876709151513,0.4962697200089186,0.012242322754648998,10.790937433761417,0.5917286646947545
11.0,21.490808018943458,0.49651746833754934,0.012235299324671305,10.790392968282728,0.5917612827041323
12.0,21.494737835311554,0.4967651828120015,0.012227950374311352,10.789848668004604,0.5918050475419875
13.0,21.498666137992576,0.49701286083956525,0.012220365070013969,10.789304535805924,0.5918429429308455
14.0,21.502592913431094,0.49726050061438504,0.012212623884888104,10.788760573584531,0.5918726404375946
15.0,21.50651815060908,0.49750810069362944,0.012204737129162518,10.788216782920552,0.5919066113358716
16.0,21.5104418439535,0.4977556602580424,0.012196782571677705,10.787673164742694,0.591938280734491
17.0,21.514363989459895,0.49800317868628047,0.012188781133700336,10.787129719748847,0.5919710319401846
18.0,21.518284582581796,0.4982506552596937,0.012180713501544609,10.786586448621598,0.592005046831032
19.0,21.52220362033482,0.4984980894866104,0.012172600731867845,10.78604335191563,0.5920370706456569
20.0,21.526121100489732,0.49874548096332444,0.01216446422175507,10.785500430086373,0.5920661983441973
21.0,21.530037020854877,0.4989928292825601,0.012156306127985975,10.78495768353867,0.5920945046359544
22.0,21.533951379851022,0.49924013411721163,0.01214813100713833,10.784415112723652,0.5921230789868427
23.0,21.53786417646848,0.49948739521158214,0.012139954402980978,10.783872717889821,0.592151298158008
24.0,21.541775409544567,0.4997346122875996,0.01213177410985108,10.783330499232378,0.5921780969725003
25.0,21.545685077810617,0.4999817850523061,0.012123586859707665,10.78278845696429,0.5922042204614995
26.0,21.549593179819126,0.5002289131916465,0.012115383619623759,10.782246591331809,0.5922294957554108
27.0,21.553499714345744,0.5004759964244304,0.012107164954636032,10.781704902667327,0.5922579591042042
28.0,21.557404680409064,0.5007230344953941,0.012098940656894487,10.781163391238318,0.5922854990826046
29.0,21.56130807711561,0.5009700271619512,0.012090713891977196,10.780622057256652,0.5923111845896952
30.0,21.565209903688924,0.5012169742011244,0.012082485208958844,10.780080900935404,0.5923379120070563
31.0,21.569110159457324,0.5014638754008599,0.012074259728456558,10.779539922457117,0.5923652601102148
32.0,21.57300884368273,0.5017107305392038,0.01206603610653748,10.778999121995255,0.5923937273863926
33.0,21.576905955552697,0.5019575393839258,0.012057813265737117,10.778458499699676,0.5924215021711041
34.0,21.580801494260342,0.5022043017107359,0.012049588967951988,10.777918055701257,0.5924486720159438
35.0,21.584695458994503,0.5024510172932569,0.012041361262968488,10.777377790165936,0.5924752529619147
36.0,21.58858784896802,0.5026976859032125,0.012033132366667011,10.776837703271891,0.5925011239962166
37.0,21.592478663441213,0.5029443073150232,0.012024902049679004,10.776297795192429,0.5925263253743988
38.0,21.5963679017379,0.5031908813145759,0.012016672058147432,10.775758066100773,0.5925518799033008
39.0,21.600255563195315,0.5034374076902539,0.012008443510476845,10.775218516167294,0.5925773313984457
40.0,21.604141647155217,0.5036838862300957,0.012000217027416759,10.774679145566164,0.592602542369175
41.0,21.608026152998427,0.5039303167288979,0.011991993830442749,10.774139954460354,0.5926275495862321
42.0,21.61190908009969,0.5041766989799449,0.011983773413611664,10.773600943016213,0.5926520859973304
43.0,21.615790427827196,0.5044230327756388,0.011975555033723249,10.773062111402492,0.592676421387078
44.0,21.619670195553816,0.5046693179097672,0.011967339049339101,10.772523459787685,0.5927004233794032
45.0,21.6235483826736,0.5049155541788556,0.011959126200810319,10.771984988335376,0.5927242611661789
46.0,21.62742498857004,0.5051617413775233,0.011950916177899534,10.771446697200574,0.5927509268307581
47.0,21.63130001259117,0.5054078792943822,0.011942709027494839,10.770908586531666,0.5927762288589251
48.0,21.635173454106553,0.5056539677215744,0.011934505006383383,10.770370656480216,0.5928010047916006
49.0,21.63904531251503,0.5059000064562854,0.011926304244378062,10.76983290720269,0.592825753620895
50.0,21.642915587203877,0.5061459952940022,0.011918106458553877,10.769295338849112,0.5928505824935769
51.0,21.646784277548072,0.5063919340285009,0.01190991126754736,10.76875795155879,0.5928755860907579
52.0,21.650651382948535,0.506637822457311,0.011901719215375296,10.768220745484628,0.5929004385008878
53.0,21.65451690279564,0.506883660375626,0.01189352995059052,10.767683720772878,0.5929250647983748
54.0,21.65838083647334,0.5071294475769972,0.011885343441003875,10.767146877569802,0.5929497797485346
55.0,21.662243183399035,0.5073751838617794,0.011877160192451811,10.766610216025674,0.5929744535032986
56.0,21.66610394296277,0.5076208690252896,0.011868980020826113,10.766073736293267,0.5929989035301187
57.0,21.669963114573555,0.5078665028657912,0.011860803147568984,10.765537438524628,0.5930231867049419
58.0,21.673820697651305,0.508112085182884,0.011852629907436879,10.765001322870713,0.5930497282039199
59.0,21.677676691609427,0.5083576157753237,0.011844459878541377,10.764465389476946,0.5930751513242001
60.0,21.6815310958707,0.5086030944427445,0.011836293202892078,10.763929638490518,0.5930997319165566
61.0,21.68538390985972,0.5088485209852,0.011828129784327415,10.76339407006145,0.5931266510508596
62.0,21.68923513301117,0.5090938952045926,0.01181996962117331,10.762858684341095,0.5931512111929319
63.0,21.693084764757682,0.5093392169023956,0.011811812976153524,10.762323481478775,0.5931754401226232
64.0,21.696932804530995,0.5095844858799228,0.011803660100925643,10.761788461622148,0.5931994653958116
65.0,21.70077925176458,0.5098297019387382,0.011795510945408098,10.761253624918872,0.5932235871682628
66.0,21.70462410589363,0.510074864880659,0.011787365482929838,10.760718971516427,0.5932472165469749
67.0,21.708467366354224,0.5103199745076743,0.011779223716530802,10.760184501561511,0.5932702913613598
68.0,21.71230903258345,0.5105650306219395,0.011771085599972704,10.759650215199736,0.5932931290692623
69.0,21.716149104021333,0.5108100330260295,0.011762951257311959,10.759116112576898,0.59331385167474
70.0,21.71998758010944,0.5110549815227291,0.011754820681342952,10.758582193838233,0.5933361765806183
71.0,21.723824460290224,0.5112998759152144,0.01174669386073571,10.758048459126124,0.5933564642206705
72.0,21.727659744009465,0.511544716006907,0.011738570907371116,10.757514908584465,0.5933774113088071
73.0,21.731493430714618,0.5117895016014977,0.011730451829942742,10.756981542356725,0.593399463889461
74.0,21.735325519845897,0.5120342325016913,0.011722336388451346,10.756448360580118,0.5934213536826315
75.0,21.739156010849353,0.5122789085110687,0.011714224681739048,10.755915363390617,0.5934435495435785
76.0,21.74298490317288,0.5125235294335292,0.011706116578664046,10.75538255092568,0.5934654914061837
77.0,21.74681219626914,0.5127680950736077,0.011698012259499352,10.754849923325924,0.5934873180766426
78.0,21.75063788959428,0.5130126052363427,0.011689911797047823,10.754317480732949,0.5935087767139889
79.0,21.754461982604766,0.5132570597268108,0.011681815234428437,10.753785223285076,0.5935313453404877
80.0,21.758284474758764,0.5135014583503691,0.011673722574186243,10.753253151120191,0.5935552528207862
81.0,21.762105365515282,0.5137458009126981,0.011665633801640193,10.752721264375301,0.5935785948044583
82.0,21.76592465433756,0.5139900872199493,0.011657548961443796,10.752189563189866,0.5935996254630203
83.0,21.76974234068906,0.514234317078377,0.011649468009722014,10.751658047701376,0.5936242211790385
84.0,21.773558424042925,0.5144784902962855,0.011641390748927704,10.751126718039144,0.5936481528610905
85.0,21.777372903868113,0.5147226066806979,0.011633317409364621,10.750595574340858,0.5936690149269156
86.0,21.781185779634043,0.5149666660387264,0.011625247992931156,10.750064616743291,0.5936908675890525
87.0,21.784997050811526,0.5152106681777044,0.011617182492203065,10.74953384538231,0.5937129936503062
88.0,21.788806716869043,0.5154546129045654,0.011609120915650679,10.7490032603921,0.5937362622343116
89.0,21.79261477728013,0.5156985000270652,0.011601063294255184,10.748472861908589,0.5937610301080077
90.0,21.796421231521755,0.5159423293535071,0.011593009646978372,10.747942650068453,0.5937831887000821
91.0,21.800226079071926,0.5161861006923999,0.011584959944390376,10.747412625008145,0.5938090966072832
92.0,21.804029319410073,0.5164298138524818,0.011576914177122633,10.746882786863772,0.5938327618847563
93.0,21.80783095201816,0.5166734686428777,0.011568872385695268,10.7463531357709,0.593855046909621
94.0,21.811630976379803,0.5169170648729692,0.011560834568003492,10.745823671864704,0.5938777587970134
95.0,21.815429391980224,0.5171606023524028,0.011552800711784961,10.74529439527965,0.5939012955292198
96.0,21.81922619833191,0.5174040808967457,0.0115447707505828,10.744765306140248,0.5939242365846381
97.0,21.823021394924275,0.5176475003163665,0.011536744767020619,10.744236404580274,0.593947015098038
98.0,21.826814981247576,0.5178908604217151,0.011528722765602628,10.743707690733373,0.5939696351046532
99.0,21.830606956793748,0.5181341610235123,0.011520704748933118,10.743179164732805,0.5939911126851477
100.0,21.83439732105562,0.5183774019326609,0.011512690703111915,10.742650826710266,0.5940119143746577
101.0,21.838186073522916,0.5186205829596523,0.011504680559061672,10.742122676791649,0.5940351385474057
102.0,21.841973213690782,0.5188637039157177,0.011496674346706977,10.741594715107688,0.594056075389363
103.0,21.845758741052194,0.5191067646119086,0.011488671954362756,10.741066941778206,0.5940759488630923
104.0,21.84954265510465,0.5193497648599129,0.011480673470974534,10.740539356926925,0.5940972149995508
105.0,21.853324955350267,0.5195927044721073,0.0114726789449953,10.740011960684898,0.5941174039316585
106.0,21.857105641287404,0.5198355832608575,0.011464688294074927,10.739484753178443,0.5941353025899101
107.0,21.86088471242077,0.5200784010390399,0.011456701553580109,10.738957734536664,0.5941549988727307
108.0,21.86466216825467,0.5203211576194441,0.011448718682460796,10.738430904886686,0.5941794019364167
109.0,21.86843800828434,0.5205638528132908,0.0114407396647622,10.737904264350949,0.5941992378515124
110.0,21.872212232014512,0.5208064864334826,0.011432764489949399,10.737377813047694,0.5942147331150689
111.0,21.875984838949826,0.5210490582930081,0.011424793090862374,10.736851551090506,0.5942308358152656
112.0,21.879755828604385,0.5212915682067085,0.011416825486219157,10.736325478600794,0.5942494670612528
113.0,21.883525200494475,0.5215340159898696,0.011408861693516665,10.735799595700344,0.5942684518630188
114.0,21.8872929541351,0.5217764014571568,0.011400901749908146,10.735273902510121,0.5942871263085262
115.0,21.89105908903739,0.5220187244225527,0.011392945619277995,10.734748399146724,0.5943063685801176
116.0,21.894823604717008,0.5222609847010504,0.011384993337055458,10.734223085728662,0.5943266655446399
117.0,21.898586500687202,0.522503182107569,0.011377044934560395,10.73369796237391,0.5943464968677825
118.0,21.90234777647079,0.5227453164581591,0.01136910044257072,10.733173029207776,0.5943688136381977
119.0,21.906107431581994,0.5229873875676472,0.011361159728931954,10.732648286341147,0.5943905092178748
120.0,21.90986546554569,0.5232293952527415,0.011353222851426443,10.732123733895671,0.5944110901376626
121.0,21.91362187788719,0.5234713393298399,0.01134528979128992,10.731599371988045,0.5944318400111032
122.0,21.917376668138225,0.5237132196164384,0.01133736057084965,10.73107520073737,0.5944523464140223
123.0,21.921129835836975,0.5239550359316284,0.011329435153054693,10.730551220262646,0.5944725114614925
124.0,21.924881380518016,0.524196788093607,0.011321513582241939,10.730027430681693,0.5944933395582173
125.0,21.928631301714905,0.5244384759200187,0.011313595843322335,10.729503832110339,0.5945152857266588
126.0,21.932379598965646,0.5246800992292157,0.011305682046510876,10.728980424671443,0.5945366074462987
127.0,21.936126271806863,0.524921657839415,0.011297772138922151,10.728457208484107,0.5945591582495671
128.0,21.939871319783318,0.5251631515708676,0.01128986608295636,10.727934183663374,0.5945831255275387
129.0,21.94361474244165,0.5254045802439038,0.011281963945001063,10.727411350327374,0.5946050468069477
130.0,21.94735653932366,0.5256459436777065,0.01127406568390856,10.726888708592412,0.5946293522434337
131.0,21.951096709975758,0.5258872416920403,0.01126617138391087,10.72636625857963,0.5946522201183134
132.0,21.954835253952552,0.5261284741082547,0.011258281038667632,10.725844000408577,0.5946749025551187
133.0,21.95857217080812,0.5263696407477326,0.01125039461383437,10.725321934196623,0.5946977157995932
134.0,21.96230746008974,0.5266107414308775,0.011242512120590952,10.724800060057516,0.5947216623870984
135.0,21.966041121340822,0.5268517759773599,0.011234633343035906,10.724278378098173,0.5947460074833097
136.0,21.9697731541126,0.5270927442078579,0.011226758440180382,10.723756888432925,0.5947697740106818
137.0,21.973503557959848,0.5273336459438467,0.011218887466772734,10.723235591174852,0.5947911616238705
138.0,21.97723233243738,0.5275744810066557,0.011211020411643364,10.722714486438473,0.5948118930066518
139.0,21.980959477102815,0.5278152492181405,0.011203157339837353,10.722193574339602,0.5948361776020165
140.0,21.984684991515696,0.5280559504004406,0.011195298190174861,10.721672854992992,0.5948604995870165
141.0,21.988408875240538,0.5282965843766517,0.011187442996769659,10.721152328514375,0.5948822059077411
142.0,21.992131127848012,0.5285371509713255,0.011179591787324505,10.72063199501892,0.5949016104210227
143.0,21.99585174891206,0.5287776500098605,0.011171744475371672,10.720111854615975,0.5949211256264126
144.0,21.999570737997836,0.5290180813154738,0.011163901035825268,10.719591907413992,0.5949418266651666
145.0,22.00328809467059,0.5292584447112444,0.011156061472584388,10.719072153523706,0.5949618221896001
146.0,22.007003818500714,0.529498740021168,0.011148225962697602,10.71855259306197,0.5949819423277527
147.0,22.010717909055607,0.5297389670685929,0.011140394404678735,10.718033226140998,0.5950025386835295
148.0,22.014430365908346,0.529979125678216,0.011132566854462393,10.717514052874794,0.595024567376535
149.0,22.01814118863423,0.5302192156749767,0.011124743312667901,10.716995073376069,0.5950465792338123
150.0,22.021850376809283,0.5304592368838242,0.011116923777470518,10.716476287755437,0.5950670103019332
151.0,22.02555793000903,0.5306991891295744,0.011109108277644879,10.715957696125988,0.5950856693774359
152.0,22.02926384781349,0.530939072238025,0.011101296847582664,10.71543929860197,0.5951049516212198
153.0,22.03296812980321,0.5311788860351514,0.011093489437833939,10.714921095295228,0.5951246765282633
154.0,22.03667077556902,0.5314186303490064,0.011085686093362036,10.71440308631885,0.5951435375413696
155.0,22.040371784695722,0.5316583050062049,0.011077886844184317,10.713885271786388,0.5951617759232317
156.0,22.044071156769203,0.5318979098336174,0.011070091703419724,10.713367651810378,0.595179525753167
157.0,22.04776889137603,0.5321374446583207,0.01106230063631993,10.71285022650063,0.5951968312119699
158.0,22.051464988105778,0.532376909307768,0.011054513678474773,10.712332995968003,0.5952136196864779
159.0,22.055159446549112,0.5326163036096063,0.011046730835896157,10.711815960324753,0.5952301872605863
160.0,22.05885226629888,0.5328556273919113,0.011038952132325482,10.71129911968362,0.5952448151834576
161.0,22.062543446948983,0.5330948804829138,0.011031177512624413,10.71078247415521,0.5952575199715481
162.0,22.066232988096843,0.5333340627113469,0.011023406950764106,10.710266023846883,0.5952708771789417
163.0,22.06992088934099,0.5335731739064821,0.011015640505411659,10.709749768869678,0.5952860035088611
164.0,22.073607150279358,0.5338122138973295,0.011007878214440102,10.709233709333928,0.5953020468577966
165.0,22.077291770512296,0.5340511825133715,0.011000120086877856,10.708717845350646,0.5953197514107355
166.0,22.080974749641026,0.5342900795842637,0.010992366087557671,10.708202177029396,0.595339000946921
167.0,22.084656087268932,0.5345289049400154,0.010984616240842843,10.707686704479906,0.5953565093747061
168.0,22.088335783001327,0.5347676584107236,0.010976870560351794,10.707171427812447,0.5953739438972865
169.0,22.09201383644315,0.5350063398258439,0.010969128987468355,10.70665634713451,0.5953905902171547
170.0,22.095690247202345,0.5352449490162945,0.01096139152623451,10.706141462554315,0.5954077970268195
171.0,22.099365014886057,0.5354834858128081,0.010953658124265908,10.705626774178473,0.5954253684586787
172.0,22.103038139103518,0.5357219500465361,0.010945928806362484,10.705112282114738,0.5954429802300695
173.0,22.106709619466244,0.5359603415491768,0.01093820358308369,10.70459798647015,0.5954577537977493
174.0,22.11037945558711,0.5361986601526074,0.01093048246686401,10.704083887351533,0.5954756197192169
175.0,22.11404764708458,0.5364369056898273,0.010922765470485691,10.703569984866464,0.5954918486388067
176.0,22.117714193576372,0.5366750779935701,0.010915052648311932,10.703056279123508,0.5955067017547183
177.0,22.121379094681135,0.5369131768967389,0.010907343976844825,10.7025427702303,0.5955235933180992
178.0,22.12504235001901,0.537151202232481,0.010899639457756589,10.702029458294149,0.5955390995214447
179.0,22.12870395921133,0.5373891538342661,0.010891939087701048,10.701516343421975,0.5955567515224539
180.0,22.132363921880042,0.5376270315356669,0.010884242863140377,10.701003425720364,0.5955721654133738
181.0,22.13602223764989,0.5378648351707493,0.010876550827863091,10.700490705296719,0.5955884398920311
182.0,22.13967890614715,0.5381025645738499,0.010868862983342808,10.699978182258205,0.5956053151805583
183.0,22.14333392699961,0.5383402195796189,0.01086117933031073,10.699465856711733,0.5956252059200213
184.0,22.14698729983381,0.5385778000228988,0.010853499806956712,10.698953728761515,0.5956448541428749
185.0,22.150639024274042,0.5388153057380308,0.010845824371303117,10.698441798509672,0.5956646893437538
186.0,22.154289099952365,0.5390527365605134,0.010838153108399905,10.697930066061932,0.5956830183159488
187.0,22.157937526484375,0.5392900923228875,0.010830485925816449,10.697418531521725,0.5956994130508925
188.0,22.161584303487665,0.5395273728586872,0.010822822682758143,10.696907194988926,0.5957169770074616
189.0,22.16522943059894,0.5397645780043041,0.010815163581399223,10.696396056567645,0.5957339476043301
190.0,22.168872907456247,0.5400017075963714,0.010807508608451541,10.695885116360857,0.5957521116556249
191.0,22.172514733699238,0.5402387614717795,0.010799857796602468,10.695374374473138,0.5957726180793189
192.0,22.176154908967973,0.5404757394674391,0.010792211120712655,10.69486383100816,0.5957918992995949
193.0,22.179793432899476,0.5407126414197965,0.010784568550053301,10.694353486065902,0.5958115553326176
