k,PSNR,SSIM,mse,Log-Gradient,Angle
0.0,21.44866463228231,0.4938907672193194,0.0,10.796235888178916,0.5219331465589139
1.0,21.45161139684685,0.49405803513349245,0.008820077858066487,10.795821418272203,0.5898113793912209
2.0,21.455420089565006,0.49429182152852036,0.011649411260521944,10.795292929522933,0.5908669204643856
3.0,21.459337490971706,0.4945367332211677,0.0121255705374055,10.794750413418269,0.5911462649737624
4.0,21.463274906509987,0.4947839434285564,0.01223475096923698,10.794205308913938,0.5913386360448626
5.0,21.46721762952933,0.49503184130783606,0.012268302799126357,10.793659484472354,0.5914472261960864
6.0,21.47116210475097,0.49528002012817685,0.012280080075632712,10.793113393984639,0.5915161956366796
7.0,21.475107186510463,0.49552834539932156,0.012283841557873994,10.792567183319676,0.5915819299491436
8.0,21.47905242792113,0.49577676411608773,0.012284107736051746,10.792020909444556,0.5916375287279212
9.0,21.482997630319694,0.4960252523057793,0.012282621124171597,10.791474599089605,0.5916853916543715
10.0,21.486942691328963,0.49627379735688487,0.012280119159075347,10.79092826653676,0.5917289421123871
11.0,21.490887554335814,0.49652239241058505,0.012277013220683333,10.790381919588533,0.5917613187193964
12.0,21.49483218855689,0.49677103372305104,0.012273578229646356,10.789835562215888,0.5918053187415429
13.0,21.49877657336891,0.4970197187332413,0.01226990324295083,10.789289197293531,0.5918438402455988
14.0,21.5027206948491,0.49726844566591283,0.01226606860416469,10.78874282671637,0.5918732058109366
15.0,21.506664541607883,0.4975172131082533,0.01226208463772292,10.78819645206208,0.5919072907690336
16.0,21.510608107694445,0.49776602027012623,0.01225802892494349,10.787650074258073,0.5919390301390702
17.0,21.514551388724925,0.49801486655899024,0.012253922389160782,10.787103694001114,0.5919718759370528
18.0,21.518494379770182,0.4982637512844938,0.012249745769884258,10.786557311973114,0.5920060183816443
19.0,21.52243707745962,0.49851267398266796,0.012245520057116282,10.78601092872859,0.5920382677930728
20.0,21.526379479174164,0.4987616342769694,0.01224126656442666,10.78546454472361,0.5920675910834914
21.0,21.5303215823312,0.499010631786982,0.012236987495224635,10.7849181603636,0.5920960322719752
22.0,21.534263384956066,0.49925966621184176,0.012232687342918349,10.784371776101164,0.5921247643999511
23.0,21.538204885642177,0.4995087373217703,0.012228381622019918,10.783825392186621,0.592153152133447
24.0,21.542146082827493,0.4997578448641959,0.012224068152658888,10.783279008817164,0.5921801915414294
25.0,21.54608697484253,0.5000069885713693,0.012219743703649533,10.782732626208048,0.5922066325475018
26.0,21.550027559835996,0.5002561681539016,0.012215399277251808,10.782186244607914,0.5922319382432137
27.0,21.55396783617737,0.5005053833549198,0.012211035393792532,10.781639864352204,0.5922605546966678
28.0,21.557907802475384,0.5007546339428371,0.01220666178960401,10.781093485711878,0.5922883599854915
29.0,21.561847457425102,0.5010039196984644,0.012202281621161042,10.780547108903185,0.5923144016842269
30.0,21.56578679983612,0.5012532404217457,0.012197895446402653,10.780000734143469,0.5923409403391199
31.0,21.569725828620804,0.5015025959232565,0.01219350836694555,10.779454361619933,0.5923686362494098
32.0,21.573664542622954,0.501751986003224,0.01218911905661011,10.778907991510948,0.5923973513697384
33.0,21.577602940609562,0.5020014104512026,0.012184726447199564,10.778361623971458,0.5924254120803643
34.0,21.581541021351608,0.5022508690643374,0.012180328344689333,10.777815259137913,0.59245288294229
35.0,21.58547878361285,0.5025003616372268,0.012175922746927446,10.77726889718251,0.5924797265862859
36.0,21.589416226178923,0.5027498879621892,0.012171511891941461,10.776722538289668,0.5925058940327375
37.0,21.59335334788047,0.5029994478338079,0.012167095539451573,10.776176182639539,0.592531406944485
38.0,21.59729014760973,0.5032490410577471,0.012162675436449218,10.77562983041213,0.5925571453394445
39.0,21.60122662427053,0.5034986674418952,0.0121582526705866,10.775083481785112,0.5925828445328784
40.0,21.605162776766925,0.5037483267930138,0.012153827842806825,10.77453713694063,0.592608284449855
41.0,21.60909860404116,0.5039980189244755,0.0121494021899639,10.773990796049796,0.5926336217374026
42.0,21.613034105027783,0.5042477436477958,0.012144975264952784,10.773444459287118,0.5926585377098316
43.0,21.616969278651894,0.5044975007730962,0.012140546299276963,10.772898126829958,0.5926832420771259
44.0,21.620904123840493,0.5047472901114716,0.012136115562956431,10.77235179885628,0.5927077064247693
45.0,21.624838639539302,0.5049971114761597,0.012131683917584579,10.771805475538628,0.5927318839728773
46.0,21.628772824682684,0.5052469646785268,0.012127250932083385,10.771259157042197,0.5927582659158588
47.0,21.632706678166436,0.5054968495232971,0.012122816715470195,10.770712843525551,0.5927845138243141
48.0,21.636640198906044,0.505746765818373,0.012118381528193875,10.770166535150864,0.5928096553883054
49.0,21.640573385843673,0.5059967133762567,0.012113945497650243,10.769620232085424,0.5928347676517136
50.0,21.64450623790784,0.506246692007361,0.012109508332836041,10.769073934490233,0.5928600532858807
51.0,21.64843875401268,0.5064967015199798,0.012105069694002159,10.76852764251626,0.5928854216512027
52.0,21.652370933095874,0.5067467417257839,0.012100630061205138,10.767981356328344,0.5929105680860608
53.0,21.656302774082597,0.5069968124337604,0.012096189127713248,10.767435076084933,0.5929355934520371
54.0,21.66023427588904,0.5072469134507477,0.01209174684613359,10.766888801944914,0.5929606969771862
55.0,21.664165437462547,0.507497044590009,0.012087303708244882,10.766342534071388,0.5929856419182319
56.0,21.668096257721842,0.5077472056594816,0.01208285956956986,10.76579627263026,0.593010239926488
57.0,21.6720267356009,0.5079973964694386,0.012078414600902454,10.765250017787277,0.5930364215991557
58.0,21.675956870043077,0.508247616831209,0.012073969155376977,10.764703769707323,0.5930628001424694
59.0,21.67988665998266,0.5084978665547807,0.012069522824407392,10.764157528549037,0.5930880977474281
60.0,21.68381610436136,0.5087481454508058,0.012065075760572799,10.763611294475202,0.5931135798888735
61.0,21.687745202120958,0.5089984533298205,0.012060627867655787,10.763065067650803,0.5931405379208977
62.0,21.691673952208074,0.5092487900034025,0.01205617916961082,10.762518848241683,0.5931650995442493
63.0,21.695602353569914,0.5094991552830952,0.012051729783957738,10.761972636413642,0.5931896001038027
64.0,21.699530405148302,0.5097495489795147,0.012047280055624388,10.761426432330344,0.5932141430116934
65.0,21.703458105884565,0.509999970903119,0.012042829963791092,10.76088023615558,0.5932386202890582
66.0,21.707385454719528,0.510250420864184,0.012038379425903972,10.760334048053744,0.5932626752100332
67.0,21.71131245059304,0.5105008986728451,0.01203392853783854,10.759787868188015,0.5932868034014814
68.0,21.715239092443053,0.5107514041389049,0.012029477125991575,10.759241696721933,0.5933074534991475
69.0,21.719165379208825,0.5110019370722371,0.012025025407633358,10.75869553381874,0.5933308062656936
70.0,21.723091309828362,0.5112524972824707,0.012020573307559835,10.758149379641935,0.593353119330131
71.0,21.727016883238747,0.5115030845792449,0.012016120856093536,10.757603234352416,0.5933744567637186
72.0,21.730942098378094,0.5117536987720536,0.012011668158240759,10.75705709811285,0.5933961884443839
73.0,21.73486695418397,0.5120043396702406,0.012007215222569494,10.756510971085833,0.5934180331223945
74.0,21.73879144958336,0.5122550070815889,0.012002761812603298,10.755964853426491,0.5934403777808817
75.0,21.74271558350832,0.5125057008146192,0.011998308061699265,10.755418745290799,0.5934628049887495
76.0,21.746639354890284,0.5127564206776849,0.011993853767213188,10.754872646836981,0.5934850702957559
77.0,21.7505627626638,0.513007166479446,0.011989399233840079,10.754326558226131,0.5935072478341811
78.0,21.75448580576411,0.5132579380285943,0.011984944421565658,10.753780479620962,0.5935303543154229
79.0,21.758408483123706,0.5135087351333188,0.011980489327255412,10.753234411180161,0.5935546964841486
80.0,21.762330793675936,0.5137595576019521,0.011976034019692912,10.752688353063792,0.593578872540617
81.0,21.766252736352403,0.5140104052425921,0.011971578489208861,10.752142305430912,0.5936009828806825
82.0,21.77017431008678,0.514261277863454,0.011967122779519493,10.751596268443475,0.5936257092099497
83.0,21.774095513811552,0.5145121752727121,0.011962666797708712,10.751050242259645,0.5936503502079203
84.0,21.778016346464867,0.5147630972796273,0.011958210435895985,10.750504227033222,0.5936732875601688
85.0,21.78193680697914,0.5150140436920215,0.011953753887086851,10.74995822292538,0.5936936316671226
86.0,21.78585689428477,0.5152650143173636,0.011949297130502022,10.749412230095778,0.593716720909497
87.0,21.78977660731198,0.515516008963017,0.011944840188832725,10.748866248704813,0.5937415395774969
88.0,21.793695944984567,0.5157670274352454,0.011940383044181312,10.748320278909862,0.5937670033642547
89.0,21.797614906232642,0.5160180695413095,0.011935925752683223,10.747774320872633,0.5937910353895789
90.0,21.801533489985765,0.5162691350883021,0.011931468314896058,10.74722837475482,0.5938167284758012
91.0,21.805451695172078,0.5165202238831067,0.011927010693511889,10.746682440718253,0.5938401885671613
92.0,21.809369520719457,0.5167713357324831,0.011922552897547695,10.746136518924668,0.5938624506533299
93.0,21.813286965555868,0.5170224704431452,0.011918094954507774,10.74559060953565,0.5938859213122091
94.0,21.81720402860872,0.5172736278216412,0.011913636865138499,10.745044712712739,0.5939099911563921
95.0,21.821120708820256,0.5175248076777894,0.011909178600971602,10.744498828611825,0.5939337754745702
96.0,21.825037005128177,0.5177760098204364,0.011904720137362504,10.743952957389334,0.5939576243526524
97.0,21.82895291645833,0.5180272340557556,0.01190026153513095,10.743407099206696,0.5939806067210831
98.0,21.83286844173606,0.5182784801897676,0.011895802796647903,10.74286125422529,0.5940024868492
99.0,21.836783579886195,0.5185297480283726,0.011891343915068372,10.742315422606426,0.5940247126101857
100.0,21.840698329829074,0.5187810373768241,0.011886884851466125,10.74176960450614,0.594047936798236
101.0,21.844612690484787,0.5190323480402108,0.011882425587148745,10.74122380008212,0.5940696331643491
102.0,21.848526660772755,0.5192836798234518,0.011877966076897251,10.740678009488878,0.5940896918474768
103.0,21.852440239609898,0.5195350325311499,0.01187350628847832,10.74013223287399,0.5941095645407931
104.0,21.856353425918577,0.5197864059685583,0.01186904632308702,10.739586470398782,0.5941291145993898
105.0,21.86026621861768,0.5200377999406629,0.011864586143703419,10.739040722221809,0.5941514568596785
106.0,21.864178616625495,0.5202892142523174,0.011860125755886556,10.738494988502046,0.5941761779537843
107.0,21.86809061886224,0.5205406487083512,0.011855665137590187,10.737949269399042,0.5941976560016949
108.0,21.87200222423227,0.5207921031108776,0.011851204210253985,10.737403565065362,0.5942158123860303
109.0,21.875913431650247,0.5210435772637657,0.01184674302143633,10.736857875653149,0.5942320493210976
110.0,21.879824240027084,0.5212950709703046,0.011842281501575862,10.73631220130707,0.5942516763340246
111.0,21.883734648281262,0.5215465840352619,0.011837819697406,10.735766542181,0.5942718265416953
112.0,21.887644655331577,0.5217981162636611,0.011833357545049251,10.735220898428038,0.5942912307441169
113.0,21.891554260093162,0.5220496674593378,0.011828895102836523,10.734675270201992,0.5943117100207542
114.0,21.895463461476243,0.5223012374252743,0.011824432378731563,10.734129657654105,0.5943324920152279
115.0,21.89937225839149,0.5225528259646991,0.011819969363304653,10.733584060935106,0.5943532145708569
116.0,21.903280649746883,0.5228044328806902,0.01181550610532917,10.733038480197502,0.5943742946101248
117.0,21.90718863445582,0.5230560579767842,0.011811042637236948,10.732492915600218,0.5943960676568723
118.0,21.911096211421608,0.5233077010549761,0.011806578838248672,10.731947367288733,0.5944178332778858
119.0,21.915003379556243,0.5235593619187936,0.011802114758407806,10.73140183541952,0.5944405280536618
120.0,21.918910137770034,0.5238110403710009,0.011797650378856179,10.73085632014451,0.5944624680717031
121.0,21.922816484978004,0.5240627362152629,0.011793185711463122,10.73031082161846,0.5944841241634381
122.0,21.926722420100226,0.5243144492564816,0.011788720738698372,10.729765339996739,0.5945052679378081
123.0,21.93062794204867,0.5245661792977868,0.011784255496127017,10.729219875432785,0.5945270371095408
124.0,21.934533049733552,0.5248179261416693,0.011779789969950234,10.72867442807997,0.5945507128895631
125.0,21.938437742067606,0.5250696895909476,0.011775324272010343,10.728128998098862,0.594575197327722
126.0,21.94234201795997,0.5253214694479004,0.011770858341692522,10.72758358564529,0.5945973035466925
127.0,21.9462458763288,0.5255732655173987,0.01176639212230269,10.727038190871168,0.5946216985972546
128.0,21.95014931608453,0.5258250776020056,0.01176192571406935,10.726492813933099,0.5946457628646982
129.0,21.95405233613487,0.5260769055036917,0.011757459075642164,10.725947454986331,0.5946695034031522
130.0,21.95795493539027,0.5263287490247301,0.011752992283710401,10.725402114191724,0.5946930100900507
131.0,21.961857112772233,0.5265806079695707,0.01174852530498289,10.724856791706394,0.5947187395783019
132.0,21.96575886718806,0.5268324821401528,0.01174405812312634,10.724311487687254,0.594743527971024
133.0,21.96966019753895,0.527084371337646,0.011739590640730107,10.72376620228272,0.5947679770218465
134.0,21.97356110272304,0.5273362753623522,0.01173512278602431,10.723220935642196,0.594790999509934
135.0,21.977461581647244,0.5275881940159738,0.011730654769111261,10.722675687922244,0.594812185927559
136.0,21.9813616332158,0.5278401270998146,0.011726186516842728,10.722130459275933,0.5948400963679794
137.0,21.985261256332358,0.5280920744148323,0.011721718114401354,10.721585249860656,0.5948645795700807
138.0,21.989160449900574,0.5283440357621191,0.011717249518771065,10.721040059831822,0.594886878641032
139.0,21.993059212826168,0.5285960109430402,0.011712780734637,10.720494889347234,0.5949071130101438
140.0,21.996957544016567,0.5288479997592621,0.011708311828935017,10.719949738566099,0.594929293584609
141.0,22.000855442389273,0.5291000020152873,0.01170384273065992,10.71940460764237,0.5949509487144152
142.0,22.004752906846633,0.529352017511966,0.011699373364158796,10.718859496725539,0.5949715206925875
143.0,22.008649936286062,0.5296040460490248,0.011694903722561895,10.718314405967586,0.5949932647340705
144.0,22.01254652960978,0.5298560874269556,0.01169043399599794,10.717769335528809,0.5950146864632841
145.0,22.016442685714477,0.5301081414452865,0.011685964097745393,10.71722428556563,0.5950373255994749
146.0,22.020338403500915,0.5303602079044326,0.01168149409500294,10.716679256236846,0.5950589315308544
147.0,22.02423368186983,0.5306122866047659,0.011677023993956885,10.716134247701033,0.5950793993060185
148.0,22.028128519720838,0.5308643773462989,0.011672553775520634,10.715589260113687,0.5950994540395265
149.0,22.032022915950023,0.5311164799282769,0.011668083458526345,10.715044293632559,0.5951204458476926
150.0,22.03591686945634,0.5313685941507108,0.011663613086928138,10.714499348417759,0.595140673118153
151.0,22.039810379136938,0.531620719813305,0.011659142619711897,10.713954424627325,0.5951614461594028
152.0,22.043703443897734,0.531872856717602,0.011654672095694757,10.713409522420788,0.5951815607177681
153.0,22.047596062636106,0.532125004663205,0.011650201546317816,10.712864641958666,0.5952013169965543
154.0,22.05148823424903,0.5323771634496596,0.01164573099872865,10.712319783401814,0.595220284876086
155.0,22.05537995763057,0.5326293328761532,0.011641260392725634,10.711774946906223,0.5952381900480738
156.0,22.059271231676707,0.5328815127420207,0.011636789783420512,10.711230132631165,0.5952542642205154
157.0,22.063162055281555,0.5331337028461829,0.011632319142823616,10.710685340736406,0.5952682437576673
158.0,22.067052427339288,0.5333859029876274,0.011627848451637382,10.710140571380803,0.5952829458474153
159.0,22.070942346743905,0.5336381129653324,0.011623377759192546,10.709595824725225,0.5952991543843097
160.0,22.07483181239165,0.5338903325785954,0.011618907036677846,10.709051100927178,0.5953167063005673
161.0,22.078720823175864,0.5341425616262462,0.01161443635267973,10.70850640014788,0.5953352724527498
162.0,22.08260937798796,0.5343947999067987,0.01160996570760944,10.707961722547548,0.5953544717976813
163.0,22.08649747571989,0.5346470472188404,0.011605495068290367,10.707417068285153,0.5953729372937542
164.0,22.090385115262116,0.5348993033607318,0.011601024458678952,10.706872437522001,0.595394541016942
165.0,22.094272295504908,0.5351515681307546,0.01159655390520135,10.706327830420106,0.5954135535296469
166.0,22.098159015339522,0.5354038413265552,0.011592083362809945,10.705783247139731,0.5954319556140181
167.0,22.102045273651765,0.5356561227452277,0.011587612746208268,10.70523868783776,0.5954498496755888
168.0,22.105931069328033,0.5359084121843256,0.011583142112984345,10.704694152674234,0.5954666492032586
169.0,22.10981640125336,0.5361607094411434,0.011578671442405862,10.704149641809577,0.5954827817368492
170.0,22.11370126831481,0.5364130143135154,0.011574200760598478,10.703605155404464,0.5954984077964792
171.0,22.117585669396934,0.5366653265988122,0.011569730050250117,10.703060693618278,0.5955128071290028
172.0,22.121469603388206,0.5369176460951529,0.011565259360310647,10.70251625661236,0.5955308960495879
173.0,22.125353069175503,0.5371699726002556,0.011560788731473197,10.701971844549123,0.5955482829860442
174.0,22.12923606564381,0.5374223059114601,0.011556318151303216,10.701427457590585,0.5955669161415108
175.0,22.13311859167746,0.5376746458260093,0.011551847614472779,10.70088309589856,0.5955854244838388
176.0,22.13700064615937,0.537926992140935,0.011547377105552136,10.70033875963457,0.5956063517815111
177.0,22.140882227971737,0.538179344653138,0.011542906654901047,10.699794448960878,0.5956243965570925
178.0,22.144763335997176,0.5384317031595575,0.01153843628855546,10.69925016404055,0.5956413646282575
179.0,22.1486439691176,0.5386840674570039,0.011533965993717487,10.698705905036354,0.595658959830464
180.0,22.152524126214338,0.5389364373421829,0.011529495772017673,10.69816167211112,0.5956761244427772
181.0,22.156403806166583,0.5391888126118533,0.011525025577723978,10.697617465425418,0.5956922386756626
182.0,22.160283007846502,0.5394411930615257,0.01152055539665894,10.697073285138888,0.5957078153260958
183.0,22.164161730129976,0.5396935784870368,0.011516085237495411,10.696529131413325,0.5957292323098433
184.0,22.168039971871746,0.5399459686804807,0.011511615038236027,10.69598500440895,0.5957508256510511
185.0,22.171917731938503,0.5401983634366218,0.011507144781637698,10.695440904285725,0.5957731687329554
186.0,22.175795009207558,0.5404507625515836,0.011502674536352474,10.694896831204398,0.5957925142603796
187.0,22.179671802553965,0.5407031658209589,0.011498204316325209,10.694352785327249,0.595811970826802
188.0,22.183548110853625,0.5409555730405414,0.011493734148487965,10.693808766817352,0.5958338344122088
189.0,22.187423932980295,0.5412079840058035,0.011489264044077088,10.693264775837417,0.5958556669888269
190.0,22.191299267804652,0.5414603985116112,0.01148479397598594,10.692720812548412,0.595876479270849
191.0,22.1951741142015,0.5417128163536026,0.011480323943667018,10.692176877113678,0.5958972490557823
192.0,22.199048471045266,0.5419652373273839,0.01147585396552962,10.691632969697332,0.5959185510649456
193.0,22.202922337208943,0.542217661228289,0.011471384015039264,10.69108909046248,0.5959409108284296
194.0,22.206795711562236,0.5424700878512281,0.011466913969510948,10.69054523957109,0.5959629123730862
