k,PSNR,SSIM,mse,Log-Gradient,Angle
0.0,21.44866463228231,0.4938907672193194,0.0,10.796235888178916,0.5219331465589139
1.0,21.45161144017542,0.4940580375931365,0.008820207534581423,10.795821412177519,0.5898113796414935
2.0,21.4554202322314,0.4942918298870609,0.011649709283668224,10.795292909559619,0.5908669199008529
3.0,21.45933779059851,0.4945367510842355,0.012126044544099511,10.794750371602003,0.5911462595296914
4.0,21.46327542102204,0.49478397443784855,0.012235403630690056,10.794205237219257,0.5913386339867094
5.0,21.467218416936745,0.4950318891172967,0.012269135063648122,10.793659374860253,0.5914472234693117
6.0,21.471163223096987,0.495280088398049,0.012281092291643958,10.79311323840926,0.5915161961938202
7.0,21.475108693854427,0.4955284377941422,0.012285033839385456,10.792566973730493,0.5915819316565156
8.0,21.47905438233196,0.49577688430387057,0.012285480092835152,10.792020637787218,0.5916375326649687
9.0,21.483000089872768,0.4960254039576842,0.012284173512339947,10.791474257306366,0.5916853966503659
10.0,21.486945714104593,0.49627398414701585,0.012281851507601327,10.790927846566685,0.5917289548743624
11.0,21.490891198418304,0.4965226180158506,0.012278925441256753,10.790381413367651,0.591761320170844
12.0,21.494836512034,0.4967713018230977,0.012275670220651172,10.78983496167725,0.5918053310934698
13.0,21.49878163433144,0.49702003301043646,0.012272174897644103,10.78928849436727,0.5918438770851061
14.0,21.502726551390655,0.49726880980526694,0.012268519809812741,10.788742013329742,0.5918732315518881
15.0,21.506671251824585,0.4975176307974156,0.01226471528215877,10.788195520139496,0.5919073218569857
16.0,21.510615729684712,0.4977664951993359,0.012260838887345348,10.787649015721138,0.5919390644722186
17.0,21.514559980589375,0.4980154024210532,0.012256911548718587,10.787102500768642,0.5919719145482928
18.0,21.51850399961149,0.4982643517747882,0.012252914008134927,10.786555975961138,0.5920060628433711
19.0,21.52244778338237,0.4985133427990888,0.012248867252466867,10.786009441850382,0.5920383226508669
20.0,21.526391329284653,0.4987623751199309,0.012244792591382506,10.785462898889723,0.5920676551220556
21.0,21.530334634737432,0.4990114483593893,0.01224069223033887,10.784916347481861,0.5920961026488682
22.0,21.53427769776751,0.4992605622190703,0.012236570659772199,10.784369788076702,0.5921248418232841
23.0,21.53822051696973,0.49950971647166376,0.012232443392773549,10.783823220921898,0.5921532371637118
24.0,21.542163090783333,0.4997589108670206,0.01222830825056601,10.783276646211966,0.5921802875989118
25.0,21.546105417540108,0.5000081451398205,0.012224162003561875,10.7827300641595,0.5922067428808307
26.0,21.550047495389848,0.500257419003101,0.012219995655543998,10.78218347501048,0.5922320592125907
27.0,21.55398932270301,0.5005067322023676,0.012215809724711311,10.781636879097727,0.5922606736986666
28.0,21.557930898089168,0.5007560845083906,0.012211613944762011,10.78109027668958,0.5922884910781986
29.0,21.561872220244155,0.5010054757043411,0.012207411471665234,10.780543667999718,0.5923145495429359
30.0,21.565813287978184,0.5012549055924927,0.012203202863682759,10.7799970532429,0.592341079313399
31.0,21.569754100204186,0.5015043739857251,0.012198993221477609,10.779450432603765,0.5923687910737553
32.0,21.573694655766396,0.5017538806866105,0.012194781219595233,10.778903806258127,0.5923975176380544
33.0,21.577634953432145,0.5020034254869429,0.01219056579017577,10.778357174358378,0.592425591389003
34.0,21.58157499197269,0.5022530081861598,0.012186344741117999,10.777810537038436,0.5924530760620416
35.0,21.585514770151896,0.5025026285811149,0.012182116067811529,10.777263894467996,0.5924799331398436
36.0,21.589454286755448,0.5027522864663329,0.012177882009053375,10.776717246828973,0.5925061130438952
37.0,21.593393540613913,0.5030019816386386,0.0121736423244519,10.776170594299039,0.5925316404400796
38.0,21.597332530619333,0.5032517139058986,0.012169398760478008,10.775623937055714,0.5925573870318499
39.0,21.601271255675293,0.5035014830781778,0.012165152403452844,10.775077275274207,0.5925830973905412
40.0,21.605209714685408,0.5037512889644028,0.012160903853325803,10.77453060913423,0.5926085484565774
41.0,21.6091479065914,0.5040011313800947,0.012156654347565956,10.773983938804461,0.5926339014598222
42.0,21.61308583032726,0.5042510101388883,0.012152403441667691,10.773437264456982,0.5926588345132672
43.0,21.61702348481738,0.504500925053038,0.012148150365673967,10.772890586266742,0.5926835552282265
44.0,21.620960868987936,0.5047508759357168,0.012143895386130974,10.772343904409325,0.5927080408478361
45.0,21.624897981783683,0.5050008626022447,0.012139639369425437,10.771797219054884,0.592732241996024
46.0,21.628834822138,0.5052508848660606,0.012135381879092348,10.77125053036626,0.5927585996209015
47.0,21.632771388945564,0.5055009425339185,0.012131123026896364,10.77070383849967,0.5927848936963585
48.0,21.63670768112062,0.5057510354157725,0.012126863073363197,10.770157143614957,0.5928100536066881
49.0,21.640643697604006,0.5060011633261058,0.012122602145691625,10.76961044587709,0.5928351833733684
50.0,21.644579437322783,0.5062513260773526,0.012118339952424303,10.769063745444749,0.5928604893653874
51.0,21.648514899189564,0.5065015234797693,0.012114076155618162,10.768517042466613,0.5928858735819919
52.0,21.65245008214037,0.5067517553469937,0.012109811232326252,10.767970337105249,0.5929110333728655
53.0,21.656384985098626,0.5070020214899421,0.012105544877756856,10.76742362951683,0.5929360778636962
54.0,21.660319606978664,0.5072523217173842,0.012101277043760364,10.766876919857998,0.5929611990296125
55.0,21.664253946725847,0.5075026558444885,0.01209700822136621,10.76633020828961,0.5929861538046209
56.0,21.66818800325686,0.5077530236810873,0.012092738267813577,10.765783494975334,0.5930107562209289
57.0,21.672121775503477,0.5080034250393246,0.01208846735150913,10.765236780078723,0.5930370279230475
58.0,21.67605526240676,0.5082538597323778,0.012084195826015354,10.764690063762451,0.5930633929905257
59.0,21.679988462898592,0.5085043275720748,0.01207992328422082,10.76414334618293,0.5930886876826248
60.0,21.683921375918178,0.5087548283708774,0.012075649878128786,10.76359662750082,0.5931142648912008
61.0,21.687854000404716,0.5090053619411427,0.012071375511753137,10.763049907878946,0.5931411442955311
62.0,21.691786335301995,0.5092559280961992,0.012067100210125546,10.762503187480974,0.5931657398136437
63.0,21.695718379554503,0.5095065266493771,0.01206282408407088,10.761956466470613,0.5931902495803967
64.0,21.699650132101134,0.5097571574130315,0.01205854748266902,10.761409745009413,0.5932148237934171
65.0,21.70358159188019,0.510007820199358,0.0120542703863411,10.76086302325906,0.5932393189819107
66.0,21.707512757829353,0.5102585148203567,0.012049992709901416,10.76031630138187,0.5932633915650029
67.0,21.711443628885227,0.510509241087842,0.012045714553354448,10.759769579538926,0.5932875617729886
68.0,21.715374203982407,0.5107599988133142,0.012041435737219473,10.759222857891734,0.5933082278595404
69.0,21.719304482056682,0.5110107878082698,0.012037156482909862,10.758676136601487,0.5933316036851469
70.0,21.723234462042484,0.5112616078840011,0.0120328767120437,10.758129415829659,0.5933538750170212
71.0,21.727164142873214,0.5115124588517815,0.012028596456743038,10.757582695735142,0.5933753369919376
72.0,21.731093523483196,0.5117633405226969,0.012024315821610973,10.757035976478605,0.5933970044171366
73.0,21.73502260280612,0.512014252707669,0.012020034815118489,10.756489258220654,0.5934188868220392
74.0,21.738951379764856,0.5122651952160547,0.012015753200399935,10.75594254111434,0.5934412493496294
75.0,21.742879853287427,0.5125161678579263,0.012011471111167614,10.755395825313773,0.5934636858680622
76.0,21.746808022301025,0.5127671704431692,0.01200718834758083,10.754849110975211,0.5934859734796584
77.0,21.750735885735885,0.5130182027819798,0.012002905209055288,10.754302398257856,0.5935081895039281
78.0,21.754663442522823,0.5132692646845087,0.0119986216641366,10.753755687322464,0.5935313862307726
79.0,21.758590691589742,0.5135203559604518,0.011994337696262384,10.753208978325814,0.5935557748167049
80.0,21.76251763186535,0.5137714764195846,0.011990053380693455,10.752662271426102,0.5935799409727429
81.0,21.766444262276487,0.5140226258714763,0.011985768708388179,10.75211556678055,0.5936019753385127
82.0,21.770370581751976,0.51427380412574,0.011981483722438001,10.751568864549258,0.5936269173297203
83.0,21.774296589219347,0.5145250109919838,0.011977198327753657,10.75102216488846,0.5936515319729564
84.0,21.778222283611626,0.514776246280837,0.011972912420525842,10.750475467950205,0.5936742341156946
85.0,21.782147663856,0.5150275098014975,0.011968626191855566,10.749928773893869,0.5936948343837293
86.0,21.786072728877542,0.5152788013627678,0.01196433961989753,10.749382082877275,0.5937178920579976
87.0,21.789997477600977,0.5155301207733458,0.01196005272796675,10.748835395059018,0.5937429414704151
88.0,21.793921908944643,0.5157814678408184,0.011955765498798782,10.748288710594762,0.5937683524355218
89.0,21.79784602183302,0.5160328423737355,0.011951477987644907,10.74774202964446,0.5937926163271534
90.0,21.801769815189886,0.5162842441804693,0.011947190194761925,10.747195352368072,0.5938181758427253
91.0,21.805693287937522,0.5165356730691705,0.011942902082436218,10.746648678925705,0.593841526348182
92.0,21.809616438997832,0.5167871288478387,0.011938613660356612,10.74610200947739,0.5938637944641841
93.0,21.813539267292693,0.5170386113243931,0.011934324955279662,10.745555344183014,0.593887402125771
94.0,21.817461771743318,0.5172901203066008,0.011930035968241623,10.745008683202439,0.5939114452147058
95.0,21.82138395128637,0.5175416556056213,0.011925746669868197,10.744462026689636,0.593935303279629
96.0,21.825305804852402,0.5177932170313216,0.01192145703721577,10.743915374799633,0.5939591876575281
97.0,21.829227331360745,0.5180448043909909,0.011917167130009454,10.743368727692221,0.5939821122605506
98.0,21.83314852973009,0.5182964174918098,0.011912876950376138,10.742822085527164,0.594003966234116
99.0,21.83706939887849,0.5185480561407693,0.011908586490878179,10.742275448464165,0.5940265009804168
100.0,21.840989937719254,0.5187997201441935,0.011904295711187849,10.741728816657437,0.5940496640493439
101.0,21.84491014516565,0.519051409308272,0.011900004596112346,10.741182190263318,0.5940711070124449
102.0,21.848830020129725,0.5193031234389357,0.011895713093436346,10.740635569434124,0.5940912295339046
103.0,21.852749561521485,0.5195548623418398,0.011891421180852735,10.740088954316512,0.594111065285379
104.0,21.856668768255958,0.5198066258233025,0.01188712895371289,10.739542345070289,0.5941307252773298
105.0,21.860587639244436,0.520058413689254,0.01188283637386026,10.738995741852342,0.5941542052403576
106.0,21.864506173397835,0.5203102257455526,0.011878543450798378,10.738449144820297,0.5941780673889299
107.0,21.868424369628308,0.5205620617979069,0.011874250156996205,10.737902554132024,0.5941992825384145
108.0,21.872342226832583,0.5208139216494118,0.011869956417258494,10.737355969938632,0.594217200096853
109.0,21.87625974391726,0.5210658051048213,0.011865662275541616,10.73680939239023,0.5942338452747683
110.0,21.880176919785544,0.5213177119683937,0.011861367668040093,10.736262821630431,0.5942536211183201
111.0,21.884093753348026,0.52156964204583,0.011857072636670322,10.735716257811701,0.5942737248610811
112.0,21.888010243515108,0.5218215951429533,0.011852777122903163,10.735169701085912,0.5942931817616616
113.0,21.891926389193536,0.5220735710644545,0.011848481181092087,10.73462315160528,0.594313827987168
114.0,21.895842189284743,0.5223255696140695,0.011844184818956383,10.734076609519477,0.5943345683858278
115.0,21.89975764269107,0.5225775905959017,0.011839888026594704,10.733530074977969,0.594355456657819
116.0,21.903672748311646,0.5228296338137741,0.011835590859258166,10.732983548132086,0.5943765049519574
117.0,21.907587505050984,0.5230816990719874,0.011831293335782098,10.73243702913899,0.5943982951764182
118.0,21.911501911803775,0.5233337861733273,0.01182699535269727,10.73189051814335,0.5944201719966443
119.0,21.91541596747282,0.52358589492203,0.01182269694219476,10.731344015299966,0.5944428805262839
120.0,21.91932967095946,0.5238380251215886,0.011818398098831598,10.730797520759669,0.5944648999718593
121.0,21.923243021169686,0.5240901765763999,0.011814098824664037,10.730251034675836,0.594486524736957
122.0,21.9271560170144,0.5243423490920868,0.011809799110195564,10.729704557202679,0.5945077250411561
123.0,21.931068657395627,0.5245945424723337,0.011805498986549885,10.729158088492175,0.5945296287417898
124.0,21.934980941214064,0.5248467565202789,0.011801198444321275,10.728611628696763,0.5945534973228053
125.0,21.938892867372846,0.5250989910393501,0.011796897594300654,10.72806517797597,0.5945780371519012
126.0,21.94280443477105,0.5253512458324243,0.011792596366186917,10.727518736483853,0.5945999935453316
127.0,21.94671564231769,0.5256035207051192,0.01178829471337183,10.726972304371479,0.5946246248285679
128.0,21.95062648891227,0.5258558154603407,0.011783992730059766,10.72642588179396,0.5946486425479484
129.0,21.954536973452612,0.5261081299006461,0.011779690385017786,10.725879468905916,0.5946724013680278
130.0,21.958447094839396,0.526360463828938,0.01177538774484213,10.725333065866897,0.5946962380357348
131.0,21.962356851983454,0.5266128170500998,0.011771084779725565,10.724786672832968,0.5947220026788262
132.0,21.966266243781128,0.5268651893664876,0.011766781468257785,10.724240289959695,0.5947465932628808
133.0,21.970175269122123,0.5271175805796021,0.011762477696925093,10.723693917393325,0.5947710754230636
134.0,21.974083926894746,0.5273699904903352,0.011758173434547282,10.723147555283468,0.5947938367534874
135.0,21.97799221599496,0.5276224189007723,0.01175386886816367,10.722601203785107,0.5948154540453513
136.0,21.981900135315943,0.527874865612609,0.011749563926886508,10.722054863050547,0.5948437615646162
137.0,21.985807683750252,0.5281273304271871,0.011745258698685751,10.721508533236076,0.5948678619562014
138.0,21.98971486019037,0.5283798131459819,0.011740953132593233,10.72096221449624,0.5948898911344291
139.0,21.993621663530966,0.5286323135707248,0.011736647241540037,10.72041590698783,0.5949100177640279
140.0,21.997528092668922,0.5288848315036535,0.011732341090595235,10.71986961086912,0.594932625942399
141.0,22.001434146509116,0.5291373667493428,0.011728034602016225,10.71932332629264,0.5949540977384281
142.0,22.00533982394177,0.5293899191088137,0.011723727689658636,10.7187770534064,0.5949748971308549
143.0,22.00924512385276,0.5296424883821115,0.011719420382989188,10.718230792362425,0.5949966185131507
144.0,22.013150045132033,0.5298950743698957,0.011715112846127916,10.717684543319933,0.5950182429649141
145.0,22.01705458666455,0.5301476768719555,0.01171080499951946,10.717138306434435,0.5950409247188149
146.0,22.020958747339016,0.5304002956889979,0.011706496911141354,10.716592081864022,0.5950622829284701
147.0,22.02486252604387,0.5306529306215225,0.011702188579622628,10.71604586976606,0.5950825598116526
148.0,22.028765921665926,0.5309055814696328,0.011697879988873438,10.715499670295126,0.595102942820809
149.0,22.032668933089234,0.5311582480328133,0.011693571168510844,10.714953483608634,0.5951237519822133
150.0,22.036571559199892,0.5314109301111867,0.011689262144303872,10.714407309865633,0.5951440879466164
151.0,22.040473798883056,0.5316636275047107,0.011684952885266943,10.713861149223252,0.5951649781767846
152.0,22.04437565103113,0.5319163400148479,0.011680643431900966,10.713315001840426,0.5951851510780305
153.0,22.048277114528556,0.5321690674413099,0.01167633381552132,10.712768867877012,0.5952048561998121
154.0,22.052178188258942,0.5324218095836292,0.011672024054071056,10.712222747492723,0.5952237057384319
155.0,22.056078871103352,0.5326745662410503,0.0116677140952622,10.711676640842832,0.5952415623117077
156.0,22.0599791619443,0.5329273372128868,0.011663403992929882,10.711130548086128,0.5952571165079995
157.0,22.063879059662426,0.5331801222980546,0.011659093708680636,10.710584469381457,0.5952711986895318
158.0,22.06777856313835,0.5334329212955041,0.011654783237088746,10.71003840488698,0.5952857944569995
159.0,22.071677671252353,0.5336857340041757,0.011650472623872981,10.709492354763073,0.5953028479663519
160.0,22.0755763828872,0.5339385602233269,0.011646161836745123,10.70894631916623,0.5953206126152636
161.0,22.079474696921984,0.5341913997516594,0.011641850954697334,10.708400298257452,0.5953392358338566
162.0,22.083372612233983,0.5344442523875611,0.011637539962175175,10.707854292195893,0.5953585284457642
163.0,22.08727012770098,0.5346971179294664,0.011633228835764443,10.70730830114013,0.5953778375814738
164.0,22.091167242199063,0.5349499961755965,0.011628917597681854,10.706762325251034,0.5953988209199349
165.0,22.0950639546041,0.5352028869240575,0.011624606275501131,10.706216364690063,0.5954176941439856
166.0,22.09896026379309,0.5354557899722295,0.011620294806164415,10.70567041961627,0.5954361828227882
167.0,22.102856168636333,0.5357087051169371,0.011615983121272919,10.705124490186215,0.5954539780112021
168.0,22.10675166800548,0.5359616321555238,0.011611671272184754,10.7045785765594,0.5954711299805829
169.0,22.110646760771075,0.5362145708851008,0.011607359259822883,10.704032678896144,0.5954868409887212
170.0,22.114541445804914,0.5364675211032126,0.011603047076695289,10.703486797356122,0.5955021389306359
171.0,22.118435721976454,0.536720482606925,0.011598734733243405,10.702940932098516,0.5955174009615677
172.0,22.122329588159513,0.5369734551941766,0.011594422270628244,10.702395083284303,0.5955351266039762
173.0,22.126223043225085,0.5372264386622206,0.011590109730041513,10.701849251075545,0.5955529692430815
174.0,22.130116086042598,0.5374794328080611,0.011585797089946491,10.701303435633676,0.5955713840547407
175.0,22.13400871548074,0.5377324374285312,0.01158148435081598,10.700757637120079,0.5955905563828837
176.0,22.137900930406374,0.5379854523202509,0.011577171493387389,10.700211855695825,0.5956111201665676
177.0,22.14179272968608,0.5382384772797334,0.011572858559028131,10.699666091522994,0.5956288142825947
178.0,22.145684112186434,0.5384915121034589,0.01156854556584323,10.699120344764294,0.5956458512551815
179.0,22.149575076773175,0.5387445565877856,0.011564232493273078,10.698574615581936,0.5956634563980363
180.0,22.153465622311398,0.5389976105289493,0.011559919354269189,10.698028904138424,0.5956806380312857
181.0,22.15735574766306,0.5392506737231341,0.011555606089400696,10.697483210593612,0.5956967757141383
182.0,22.161245451684056,0.5395037459653189,0.01155129270308724,10.69693753510723,0.5957129255321129
183.0,22.165134733233508,0.5397568270507466,0.011546979185213043,10.696391877840641,0.5957344635630772
184.0,22.169023591145304,0.5400099167702722,0.011542665468954005,10.695846238953367,0.5957560831386014
185.0,22.172912024273593,0.5402630149188389,0.011538351566262936,10.695300618605467,0.5957787574124097
186.0,22.176800031478617,0.540516121291922,0.011534037528620601,10.694755016957293,0.5957976120377165
187.0,22.18068761161836,0.5407692356844831,0.011529723379385487,10.694209434171162,0.5958176918279542
188.0,22.184574763551762,0.5410223578917543,0.011525409144535224,10.693663870410274,0.5958396847228317
189.0,22.18846148613402,0.5412754877082963,0.011521094823878704,10.693118325836469,0.5958614314995652
190.0,22.19234777821944,0.5415286249285014,0.011516780396092384,10.69257280061112,0.5958826210733994
191.0,22.19623363866511,0.5417817693473045,0.01151246586001936,10.692027294897407,0.5959031384558872
192.0,22.20011906632779,0.5420349207595715,0.01150815123577481,10.691481808859425,0.595924830228294
193.0,22.20400406006179,0.542288078959799,0.011503836464371284,10.690936342659526,0.5959477561876517
