k,PSNR,SSIM,mse,Log-Gradient,Angle
0.0,21.44866463228231,0.4938907672193194,0.0,10.796235888178916,0.5219331465589139
1.0,21.451610824066677,0.4940580026182624,0.008818363604817471,10.795821498840608,0.5898113760827164
2.0,21.455418203712433,0.4942917110398955,0.01164547191228697,10.79529319341027,0.5908669278372803
3.0,21.459333530582132,0.4945364971109967,0.01211930560461767,10.794750966134508,0.5911463369841676
4.0,21.46326810628291,0.4947835335820045,0.012226125626927327,10.794206256490838,0.5913386631305005
5.0,21.467207223196816,0.49503120945804174,0.012257305004305908,10.79366093309842,0.5914472620999197
6.0,21.47114732576822,0.4952791179353686,0.012266705717591616,10.793115449916643,0.5915161880657679
7.0,21.475087268280113,0.49552712447726016,0.012268089625319828,10.792569952853757,0.5915819071584795
8.0,21.47902660388055,0.49577517604242666,0.012265978595723722,10.792024498905015,0.5916374766492462
9.0,21.482965133981494,0.4960232486270488,0.012262115851919475,10.791479114823266,0.5916853257565071
10.0,21.48690275630159,0.4962713295910952,0.012257239189137624,10.790933814910037,0.5917287739156322
11.0,21.490839414335863,0.4965194120487446,0.01225176021514562,10.790388606985655,0.5917612979066077
12.0,21.494775077416605,0.4967674922301207,0.012245954026467084,10.789843495037836,0.5918051549639581
13.0,21.498709725040918,0.4970155675488133,0.012239909746831834,10.789298481957426,0.5918433153402609
14.0,21.502643343410874,0.49726363620479797,0.012233707798597062,10.788753569654741,0.5918728643624932
15.0,21.506575921264247,0.49751169676084667,0.012227358498081388,10.788208759722577,0.5919068794882268
16.0,21.51050745278137,0.49775974840294995,0.012220939540480855,10.78766405310278,0.5919385766961894
17.0,21.514437933710514,0.4980077905148594,0.012214471848353966,10.78711945050646,0.5919713652781106
18.0,21.51836735925667,0.49825582238284083,0.012207936129526016,10.786574952629604,0.5920054305361201
19.0,21.522295726185522,0.4985038435198558,0.012201353414783789,10.78603056004051,0.5920375430460103
20.0,21.526223032016468,0.4987518535266487,0.012194745068682929,10.785486273208551,0.5920667476669981
21.0,21.530149274306076,0.4989998520002357,0.012188113266914026,10.784942092552505,0.5920951052351028
22.0,21.53407445122157,0.4992478386175767,0.012181462541567909,10.78439801853779,0.5921237434724328
23.0,21.53799856149916,0.4994958131268828,0.012174808425328823,10.783854051427348,0.5921520297894367
24.0,21.541921603721086,0.49974377525383895,0.0121681487232159,10.783310191430894,0.5921789227987013
25.0,21.545843576363083,0.49999172470910785,0.01216148018224956,10.782766438776044,0.592205173432324
26.0,21.549764477720853,0.5002396611820387,0.012154793783898905,10.782222793723733,0.592230418340839
27.0,21.55368430631234,0.5004875843946827,0.012148090076008509,10.781679256621324,0.5922589833723948
28.0,21.557603060896998,0.5007354940947828,0.012141378829139555,10.781135827751426,0.5922866279910094
29.0,21.561520740321605,0.5009833900426411,0.012134663205778398,10.780592507341419,0.5923124498775767
30.0,21.565437343548975,0.5012312720179523,0.012127943758975916,10.780049295619847,0.5923391058912183
31.0,21.56935286964594,0.501479139811218,0.012121225602324044,10.779506192784886,0.5923665920319496
32.0,21.573267317612096,0.5017269932028988,0.012114507399398358,10.77896319902574,0.5923951567929864
33.0,21.57718068637173,0.5019748319629467,0.012107788076891,10.778420314508086,0.5924230445688518
34.0,21.581092974854087,0.5022226558691555,0.012101065414637987,10.77787753937882,0.5924503326300916
35.0,21.585004181983017,0.5024704646970376,0.012094337442376061,10.777334873820182,0.5924770153404869
36.0,21.588914306705544,0.5027182582200308,0.012087606385740463,10.776792318026644,0.5925030042002416
37.0,21.5928233480152,0.5029660362141226,0.012080872009992007,10.776249872188066,0.5925283243592637
38.0,21.596731304968305,0.5032137984665903,0.012074136063646383,10.775707536494195,0.5925539559027073
39.0,21.600638176633918,0.5034615447670919,0.01206739965291023,10.77516531113215,0.5925795065280798
40.0,21.604543962083937,0.5037092749046405,0.01206066339120413,10.774623196293117,0.5926048057429859
41.0,21.608448660429,0.5039569886749381,0.012053928506579952,10.774081192157155,0.5926299390182453
42.0,21.612352270773087,0.5042046858720001,0.012047194516859953,10.77353929890772,0.5926546272472936
43.0,21.61625479221248,0.5044523662888271,0.012040460670520572,10.77299751673083,0.59267910975629
44.0,21.620156223847072,0.5047000297195673,0.012033727288025877,10.772455845812658,0.5927032883028177
45.0,21.624056564797023,0.5049476759609131,0.01202699516174148,10.771914286334212,0.5927271423626893
46.0,21.627955814171646,0.5051953048076219,0.012020263932942874,10.77137283846843,0.592753840049999
47.0,21.631853971043583,0.5054429160482122,0.012013533673596297,10.770831502381643,0.5927795002565519
48.0,21.635751034506328,0.5056905094745924,0.012006804642446217,10.770290278243525,0.5928044112058595
49.0,21.63964700368166,0.5059380848835132,0.012000076968839599,10.76974916622875,0.5928293012882021
50.0,21.643541877679006,0.5061856420698948,0.011993350367139756,10.769208166505619,0.5928543031213324
51.0,21.6474356555947,0.5064331808267605,0.011986624472969583,10.768667279231984,0.5928794628598876
52.0,21.651328336550133,0.5066807009507499,0.011979899805519998,10.768126504579419,0.5929044315925677
53.0,21.65521991965538,0.5069282022360047,0.01197317603166021,10.767585842712949,0.5929292132347274
54.0,21.659110404013155,0.5071756844748416,0.011966453113360254,10.767045293797784,0.5929540700493828
55.0,21.662999788758725,0.5074231474662253,0.011959731551685997,10.766504858003234,0.5929788694371055
56.0,21.666888072999562,0.5076705910039614,0.011953011178659906,10.765964535501237,0.5930033915883294
57.0,21.67077525586068,0.507918014884546,0.011946292196120908,10.765424326463231,0.593028402179855
58.0,21.674661336477445,0.508165418905722,0.011939574948148653,10.764884231059659,0.5930549127877065
59.0,21.678546313977694,0.5084128028641685,0.011932859014004869,10.764344249455162,0.5930802767861378
60.0,21.68243018749798,0.5086601665573628,0.011926144545058371,10.763804381817083,0.5931048920390573
61.0,21.68631295617598,0.5089075097829859,0.011919431444067383,10.763264628315357,0.5931325420084521
62.0,21.690194619157484,0.5091548323402552,0.011912719720014633,10.762724989121072,0.5931566649047567
63.0,21.694075175587248,0.5094021340281079,0.011906009578572524,10.76218546440407,0.5931810239418474
64.0,21.697954624607473,0.5096494146450067,0.011899301308877615,10.761646054332349,0.5932051303517161
65.0,21.70183296536122,0.5098966739895106,0.011892594872952765,10.761106759073968,0.5932294916352168
66.0,21.705710196992456,0.5101439118602578,0.011885890222480058,10.760567578797112,0.5932532841454482
67.0,21.709586318645364,0.5103911280559372,0.011879187397821173,10.760028513669024,0.5932766468243535
68.0,21.71346132946401,0.5106383223751966,0.011872486302727442,10.759489563856434,0.5932979683940348
69.0,21.717335228594834,0.5108854946169524,0.011865787098742085,10.758950729526072,0.5933205454500582
70.0,21.721208015184743,0.5111326445801834,0.011859089752184368,10.758412010844435,0.5933429994704822
71.0,21.72507968838088,0.5113797720640787,0.011852394268764003,10.75787340797527,0.5933632361042157
72.0,21.72895024733286,0.5116268768679503,0.011845700758142947,10.75733492108394,0.5933850379195077
73.0,21.73281969119116,0.51187395879116,0.011839009229474938,10.756796550335528,0.5934067729660604
74.0,21.73668801909782,0.5121210176319136,0.01183231944645597,10.756258295888532,0.5934288289708439
75.0,21.74055523020023,0.5123680531891887,0.011825631517119089,10.755720157900607,0.5934511491812038
76.0,21.74442132364696,0.5126150652621237,0.011818945286580946,10.755182136531623,0.5934731629301536
77.0,21.748286298590696,0.5128620536503684,0.011812261002242188,10.754644231944267,0.5934951628654269
78.0,21.752150154186467,0.5131090181538279,0.011805578639319825,10.754106444302744,0.5935171104790493
79.0,21.756012889588558,0.5133559585722923,0.0117988982757971,10.753568773767409,0.5935404863480392
80.0,21.759874503952833,0.5136028747057871,0.011792219925787092,10.75303122049915,0.5935645979420685
81.0,21.763734996434554,0.513849766354373,0.011785543570415877,10.752493784657444,0.5935875747000424
82.0,21.76759436619288,0.5140966333185074,0.011778869261147906,10.751956466404893,0.5936100300409187
83.0,21.771452612386494,0.5143434753986591,0.0117721969334752,10.75141926590128,0.5936346424476836
84.0,21.77530973418243,0.5145902923969822,0.011765526424151122,10.750882183299616,0.5936585371755417
85.0,21.779165730742783,0.5148370841143005,0.011758857951116277,10.750345218760998,0.5936787279200434
86.0,21.783020601229282,0.5150838503513211,0.011752191507060568,10.749808372445337,0.5937010002700293
87.0,21.78687434480455,0.515330590908878,0.011745527097666398,10.749271644512337,0.5937236083040925
88.0,21.790726960627126,0.5155773055870867,0.01173886471965233,10.748735035119365,0.5937484544707136
89.0,21.794578447861376,0.5158239941869915,0.011732204416377583,10.748198544426677,0.5937726261194675
90.0,21.798428805673517,0.5160706565098853,0.011725546199632318,10.747662172594938,0.593796913860516
91.0,21.80227803322993,0.516317292357127,0.011718890036815054,10.74712591978474,0.5938218594026644
92.0,21.806126129697788,0.516563901530149,0.011712235927204294,10.746589786156424,0.5938445622682033
93.0,21.809973094245937,0.5168104838305966,0.01170558390696985,10.746053771869947,0.5938669149810462
94.0,21.813818926044046,0.5170570390602057,0.011698933973461877,10.745517877085017,0.5938904197852909
95.0,21.817663624268206,0.5173035670220761,0.011692286109846694,10.744982101958849,0.5939140411868601
96.0,21.82150718811076,0.5175500675228226,0.011685640266292997,10.744446446642348,0.5939372831832771
97.0,21.825349616744024,0.5177965403645373,0.011678996518348988,10.743910911294494,0.5939604460602615
98.0,21.829190909341165,0.5180429853494193,0.011672354870118792,10.743375496074009,0.5939827563126517
99.0,21.833031065076284,0.5182894022797665,0.011665715321833097,10.742840201139355,0.5940040357083397
100.0,21.836870083122562,0.5185357909578062,0.011659077850457793,10.742305026646202,0.5940261449137311
101.0,21.840707962650484,0.5187821511853005,0.01165244239948521,10.741769972746653,0.5940485330974515
102.0,21.844544702835353,0.5190284827646529,0.011645808996176557,10.741235039597509,0.5940696050826401
103.0,21.848380302847225,0.5192747854976272,0.011639177505142064,10.740700227339074,0.5940892354043318
104.0,21.85221476186387,0.5195210591870091,0.011632548082569692,10.740165536126277,0.5941105040282095
105.0,21.856048079063957,0.5197673036357865,0.011625920712757557,10.739630966115502,0.5941295416850767
106.0,21.859880253622805,0.5200135186468295,0.011619295345590525,10.739096517459537,0.594150170860628
107.0,21.863711284721337,0.5202597040233996,0.01161267200707085,10.73856219031391,0.5941738008908539
108.0,21.867541171534125,0.520505859567594,0.01160605064283541,10.738027984830282,0.5941950770074038
109.0,21.871369913234965,0.520751985081481,0.011599431265305039,10.737493901159258,0.5942128670748635
110.0,21.875197508998546,0.5209980803672128,0.011592813804461933,10.736959939439378,0.5942257680867952
111.0,21.879023958005526,0.5212441452281084,0.011586198278076129,10.736426099815281,0.5942466540062007
112.0,21.882849259443567,0.5214901794691075,0.011579584655394513,10.735892382435175,0.5942657864574833
113.0,21.886673412498503,0.5217361828943049,0.011572972987500162,10.735358787449158,0.5942850021202429
114.0,21.890496416354786,0.5219821553075378,0.011566363280177079,10.734825315003654,0.5943044628351923
115.0,21.894318270190887,0.5222280965115697,0.011559755511751842,10.734291965240736,0.5943248541385614
116.0,21.89813897319235,0.522474006310537,0.011553149742815553,10.733758738308241,0.594345011348538
117.0,21.901958524541794,0.5227198845084221,0.011546545978861667,10.733225634354097,0.5943664167721879
118.0,21.905776923425826,0.5229657309093013,0.011539944210610933,10.73269265352588,0.5943884543294506
119.0,21.909594169029234,0.5232115453171401,0.011533344390272655,10.73215979596778,0.5944097187199854
120.0,21.913410260541376,0.523457327536775,0.011526746505954987,10.731627061826398,0.59443106527375
121.0,21.91722519715387,0.5237030773728585,0.011520150584469023,10.731094451247134,0.5944523088555339
122.0,21.921038978064015,0.5239487946313567,0.011513556611430133,10.730561964377872,0.594473174138176
123.0,21.924851602474824,0.524194479119543,0.011506964594155783,10.730029601365768,0.5944934863554038
124.0,21.92866306958019,0.5244401306424945,0.011500374540395007,10.729497362355794,0.5945154435101198
125.0,21.93247337857668,0.5246857490055662,0.011493786497031732,10.72896524749563,0.5945378640820079
126.0,21.936282528663792,0.5249313340145663,0.011487200534934794,10.72843325693736,0.5945610037300058
127.0,21.940090519037486,0.5251768854749795,0.0114806165505405,10.727901390825357,0.5945840623855915
128.0,21.943897348908564,0.525422403195595,0.011474034570097274,10.727369649305686,0.5946067286586288
129.0,21.947703017475536,0.525667886982101,0.011467454641194277,10.726838032524002,0.5946312305464995
130.0,21.9515075239402,0.5259133366406977,0.011460876743241212,10.72630654062875,0.5946546388857136
131.0,21.95531086750815,0.5261587519781558,0.011454300959943209,10.725775173770954,0.5946773431915147
132.0,21.959113047394677,0.5264041328031507,0.011447727242155913,10.725243932098198,0.594701047758695
133.0,21.962914062803065,0.5266494789222045,0.011441155570442127,10.724712815756819,0.5947256429576063
134.0,21.96671391293144,0.5268947901414839,0.011434585853938233,10.724181824884095,0.5947499467106898
135.0,21.970512596979752,0.527140066266708,0.011428018040129063,10.723650959621683,0.5947739235489374
136.0,21.97431011415567,0.5273853071050731,0.011421452313302483,10.723120220114115,0.5947957374152534
137.0,21.97810646366581,0.5276305124635651,0.011414888617260501,10.722589606505151,0.5948163803008832
138.0,21.981901644717396,0.5278756821491418,0.01140832703130127,10.72205911894115,0.5948432352998004
139.0,21.9856956565198,0.5281208159691958,0.011401767520705151,10.72152875756699,0.5948669924177047
140.0,21.98948849828531,0.528365913731555,0.01139521008454376,10.720998522529301,0.5948884135648399
141.0,21.993280169229116,0.5286109752445791,0.011388654787418755,10.72046841397576,0.5949077687074474
142.0,21.997070668577994,0.5288560003197788,0.011382101535582648,10.719938432047483,0.5949286984024806
143.0,22.00085999554499,0.5291009887650999,0.011375550322328152,10.719408576884367,0.5949497768447913
144.0,22.00464814934059,0.5293459403879757,0.011369001065111833,10.718878848625671,0.5949695898956524
145.0,22.00843512918087,0.5295908549966789,0.011362453998814043,10.718349247419722,0.5949908690120518
146.0,22.012220934277686,0.529835732398694,0.011355909031177388,10.717819773410868,0.5950118098347451
147.0,22.016005563847642,0.530080572402558,0.011349366205213995,10.71729042674446,0.5950340652278752
148.0,22.019789017109378,0.5303253748171254,0.011342825545511628,10.716761207566401,0.5950560554275691
149.0,22.023571293282444,0.5305701394512772,0.011336287033345794,10.716232116019102,0.5950759708680408
150.0,22.02735239158295,0.530814866113108,0.011329750678038587,10.71570315224671,0.595095012898413
151.0,22.031132311232323,0.5310595546118565,0.011323216547570287,10.715174316395974,0.5951156998508041
152.0,22.03491105145114,0.5313042047567462,0.011316684573122897,10.714645608611228,0.595135232637015
153.0,22.038688611468714,0.5315488163586485,0.011310154817749028,10.714117029038162,0.5951545564729814
154.0,22.04246499051001,0.5317933892274788,0.01130362728617811,10.713588577822557,0.5951736126039664
155.0,22.046240187799995,0.5320379231730009,0.011297102029334639,10.713060255111133,0.5951921845767681
156.0,22.050014202561844,0.5322824180049035,0.011290578980704371,10.71253206104593,0.5952101367833155
157.0,22.05378703402223,0.5325268735332189,0.011284058191579118,10.712003995770592,0.5952272952340295
158.0,22.057558681407592,0.5327712895679553,0.011277539667596504,10.711476059430565,0.5952432866377516
159.0,22.061329143945887,0.5330156659193549,0.011271023398761173,10.710948252171141,0.5952570154823476
160.0,22.065098420865628,0.5332600023977708,0.011264509363087993,10.710420574136085,0.5952706241203244
161.0,22.068866511398042,0.5335042988139506,0.011257997557187953,10.709893025467705,0.5952846859659627
162.0,22.07263341477521,0.5337485549789491,0.011251488022727872,10.709365606310165,0.5952998469599616
163.0,22.076399130227827,0.533992770703524,0.01124498080154763,10.70883831680806,0.5953193790745801
164.0,22.080163656987843,0.5342369457986197,0.01123847589760376,10.708311157106062,0.595337781903683
165.0,22.083926994288113,0.5344810800754037,0.01123197326032831,10.707784127346866,0.5953561106189783
166.0,22.08768914136214,0.534725173345101,0.01122547294586483,10.707257227675381,0.5953745023728235
167.0,22.091450097444767,0.5349692254188892,0.011218974944722493,10.706730458236263,0.595394529607753
168.0,22.09520986176971,0.5352132361070709,0.011212479208629621,10.706203819171526,0.595411894700434
169.0,22.098968433573045,0.5354572052213881,0.011205985700389559,10.705677310622336,0.595427058557356
170.0,22.102725812088813,0.5357011325731061,0.01119949442870045,10.705150932731012,0.5954443223789329
171.0,22.10648199655333,0.5359450179739383,0.011193005410130352,10.704624685640393,0.5954615926299011
172.0,22.110236986204118,0.5361888612359479,0.011186518635917695,10.704098569492324,0.5954775058908154
173.0,22.11399078027938,0.5364326621712437,0.011180034132182205,10.703572584428972,0.5954942176101118
174.0,22.117743378023057,0.5366764205930593,0.011173551918318248,10.70304673059332,0.5955093738081411
175.0,22.12149477867639,0.5369201363139737,0.011167072046713633,10.702521008129423,0.5955270573682957
176.0,22.12524498148136,0.537163809146691,0.011160594483531232,10.70199541718021,0.5955432215296181
177.0,22.128993985680758,0.5374074389040713,0.011154119238367408,10.701469957888563,0.595561334511615
178.0,22.13274179051733,0.537651025399014,0.011147646298589338,10.70094463039695,0.5955770472552511
179.0,22.136488395234753,0.5378945684445646,0.011141175690690125,10.700419434848277,0.5955963365741975
180.0,22.140233799078345,0.5381380678540252,0.011134707440341068,10.699894371385959,0.5956155186519115
181.0,22.14397800129425,0.5383815234408745,0.011128241549362974,10.69936944015329,0.5956322200326704
182.0,22.147721001129447,0.5386249350186995,0.01112177801827853,10.698844641293423,0.5956470925524541
183.0,22.151462797827545,0.5388683024010537,0.011115316729546843,10.698319974944791,0.5956660286164
184.0,22.155203390631648,0.5391116254010858,0.011108857746513167,10.697795441247662,0.5956855543061064
185.0,22.15894277879086,0.539354903832803,0.011102401118838475,10.697271040344678,0.5957050466325089
186.0,22.162680961525343,0.5395981375051929,0.01109594662814221,10.696746772373043,0.5957233178541963
187.0,22.16641793807904,0.539841326231912,0.011089494366887666,10.696222637472154,0.5957410211594948
188.0,22.170153707703932,0.5400844698274812,0.011083044413528085,10.695698635782358,0.5957624124932498
189.0,22.17388826965204,0.5403275681064511,0.011076596778075919,10.695174767444628,0.5957825770955729
190.0,22.177621623175373,0.5405706208832387,0.011070151451271902,10.694651032600055,0.5957987681711246
191.0,22.181353767526517,0.5408136279724771,0.011063708454366243,10.694127431389333,0.5958195560993081
192.0,22.185084701956033,0.5410565891884308,0.011057267749707247,10.693603963950704,0.5958397973478325
193.0,22.188814425719983,0.5412995043463479,0.011050829355777256,10.69308063042498,0.5958606721888505
