k,PSNR,SSIM,mse,Log-Gradient,Angle
0.0,20.267287877211714,0.46998399460325874,0.0,10.98716179161679,0.5930897036391504
1.0,20.270368717820006,0.4701220480031523,0.010256254287300336,10.986763873349673,0.5954908050548363
2.0,20.273955110133116,0.4702849161912004,0.012089004171583366,10.986305412531518,0.5955111191480661
3.0,20.277564312907653,0.47044901742431405,0.012198148292202232,10.985844239411506,0.5955141413064902
4.0,20.281175498099664,0.47061325827665973,0.012207830105515396,10.98538280082175,0.595514523955299
5.0,20.28478701481625,0.47077754771310315,0.012207188030934766,10.984921297763217,0.5955193013727627
6.0,20.288398616166653,0.47094187181358266,0.012204495447221903,10.984459763644066,0.5955272314107466
7.0,20.292010249751687,0.47110622747595676,0.012201256503816765,10.983998206463502,0.5955354221889541
8.0,20.29562189996448,0.4712706136846901,0.012197785613606382,10.983536629426242,0.5955407146519793
9.0,20.29923356082477,0.4714350300255636,0.012194224142965586,10.983075033803845,0.5955469788597485
10.0,20.302845229809854,0.4715994763174107,0.012190616894877942,10.98261342026137,0.59555332947534
11.0,20.306456904570695,0.47176395241137786,0.01218697476864989,10.982151789258921,0.5955599696300974
12.0,20.31006858383232,0.47192845821306734,0.012183308421251076,10.981690141134676,0.5955667995994298
13.0,20.313680266611293,0.47209299364647234,0.012179629291453506,10.981228476097975,0.5955738120676864
14.0,20.31729195215563,0.4722575586528972,0.012175940940619044,10.980766794329814,0.5955812763664904
15.0,20.32090363979129,0.47242215317864983,0.012172246534810768,10.980305095947223,0.5955886682611464
16.0,20.32451532886725,0.47258677717837805,0.012168547605229996,10.9798433810649,0.595596029904761
17.0,20.328127018621398,0.47275143059852526,0.012164843295980044,10.979381649791357,0.5956034215974113
18.0,20.3317387084846,0.47291611339911804,0.012161136330171742,10.978919902224112,0.595610783028521
19.0,20.335350397916198,0.47308082554149894,0.012157429358321405,10.978458138439814,0.5956181480272967
20.0,20.338962086382185,0.4732455669870353,0.012153719592485148,10.977996358525218,0.5956254982914972
21.0,20.342573773349898,0.473410337697211,0.01215000712562171,10.977534562564417,0.5956334704748506
22.0,20.34618545828748,0.4735751376335786,0.01214629370175034,10.977072750633786,0.5956414602506978
23.0,20.34979714066357,0.4737399667577213,0.012142580617454397,10.976610922798749,0.5956494442141548
24.0,20.353408819947024,0.4739048250312421,0.01213886789705108,10.976149079124001,0.5956573211520244
25.0,20.35702049560674,0.47406971241573315,0.012135155309293854,10.975687219671908,0.5956650880172584
26.0,20.360632167111486,0.4742346288727684,0.012131441809049924,10.975225344497654,0.5956728162887209
27.0,20.3642438339298,0.4743995743639004,0.01212772592119516,10.974763453679033,0.5956806241248387
28.0,20.36785549552993,0.47456454885063964,0.012124010024805352,10.974301547280318,0.5956884544960125
29.0,20.371467151379772,0.4747295522944662,0.012120294405465207,10.973839625364139,0.5956962726760441
30.0,20.37507880094681,0.4748945846568095,0.012116579068193576,10.973377687992997,0.5957041251251812
31.0,20.378690443698094,0.4750596458990501,0.012112864016441821,10.972915735229304,0.5957119167235286
32.0,20.38230207909907,0.4752247359820985,0.012109148843305394,10.972453767136441,0.5957195969437309
33.0,20.385913706615742,0.4753898548671431,0.012105433581640103,10.971991783777339,0.5957271678262127
34.0,20.389525325714,0.4755550025154553,0.012101718587134835,10.971529785214218,0.5957346034145509
35.0,20.39313693585921,0.4757201788882462,0.01209800355208418,10.971067771507046,0.5957419487608194
36.0,20.396748536510763,0.47588538394625046,0.012094288468148336,10.970605742717572,0.5957492219011756
37.0,20.400360127130156,0.4760506176503687,0.012090573467731552,10.970143698907735,0.5957564000763552
38.0,20.403971707181455,0.4762158799616733,0.012086858720818192,10.969681640139761,0.5957635251314594
39.0,20.407583276128143,0.4763811708411934,0.0120831441378772,10.969219566476283,0.5957705824943468
40.0,20.411194833433196,0.47654649024988655,0.012079428853682808,10.968757477988119,0.5957775869814124
41.0,20.414806378559,0.47671183814866414,0.01207571377691028,10.968295374738055,0.5957845296244771
42.0,20.418417910967403,0.4768772144983738,0.012071998961775163,10.967833256788182,0.5957914047636873
43.0,20.422029430119682,0.47704261925980385,0.01206828440827602,10.967371124200634,0.5957981420987452
44.0,20.42564093547655,0.47720805239368397,0.012064570016675163,10.966908977037432,0.5958047527263416
45.0,20.429252426498138,0.4773735138606862,0.012060855835937091,10.966446815360726,0.5958112614832495
46.0,20.432863902644037,0.47753900362142726,0.012057141909856137,10.965984639232786,0.5958175831784588
47.0,20.43647536337323,0.4777045216364546,0.012053427923247604,10.96552244871431,0.595823687897603
48.0,20.440086808144148,0.4778700678662644,0.012049713950401272,10.96506024386749,0.5958304057199039
49.0,20.44369823641464,0.4780356422712923,0.01204600004301053,10.96459802475204,0.5958373161087588
50.0,20.44730964764196,0.47820124481190956,0.01204228619511714,10.964135791427925,0.5958442745134825
51.0,20.45092104128281,0.47836687544843165,0.012038572556724757,10.963673543957587,0.5958508094580405
52.0,20.454532416793285,0.47853253414111835,0.012034859008702641,10.963211282402913,0.5958568015553213
53.0,20.458143773628912,0.47869822085015806,0.012031145671329383,10.962749006826437,0.5958625444293482
54.0,20.46175511124464,0.47886393553569145,0.012027432568278656,10.962286717290866,0.5958681619337086
55.0,20.46536642909483,0.47902967815778846,0.012023719699666216,10.961824413858965,0.595873770746537
56.0,20.468977726633256,0.479195448676474,0.012020007065581394,10.961362096593566,0.5958795062859453
57.0,20.472589003313114,0.47936124705169564,0.012016294666090437,10.960899765557564,0.5958858624815326
58.0,20.476200258587024,0.4795270732433496,0.012012582376916823,10.960437420814745,0.5958922133705523
59.0,20.479811491907007,0.4796929272112745,0.012008870260788358,10.959975062428525,0.5958984702987845
60.0,20.483422702724514,0.4798588089152455,0.012005158380353643,10.959512690461953,0.595904696623809
61.0,20.48703389049041,0.480024718314981,0.012001446735748298,10.95905030497815,0.5959107973830111
62.0,20.49064505465497,0.480190655370128,0.011997735327093398,10.9585879060403,0.5959168027003184
63.0,20.494256194667884,0.48035662004028984,0.011994024154497072,10.95812549371165,0.5959226970762734
64.0,20.497867309978265,0.48052261228500054,0.011990313218056327,10.957663068055512,0.595928575332188
65.0,20.501478400034642,0.48068863206373647,0.01198660251785818,10.957200629135263,0.5959344059923002
66.0,20.505089464284936,0.4808546793359086,0.011982892053980974,10.956738177014353,0.5959401594676684
67.0,20.50870050217651,0.4810207540608776,0.011979181826495214,10.956275711756287,0.5959457999482836
68.0,20.512311513156124,0.48118685619793394,0.011975471835464588,10.955813233424646,0.5959513940808873
69.0,20.515922496669965,0.4813529857063177,0.011971762080946587,10.95535074208307,0.5959569019244227
70.0,20.519533452163614,0.4815191425451999,0.011968052500303238,10.954888237795299,0.5959622250708282
71.0,20.523144379082087,0.4816853266737013,0.011964343097179907,10.954425720625125,0.5959674193051921
72.0,20.52675527686981,0.48185153805087205,0.011960633935431616,10.953963190636372,0.5959724804372905
73.0,20.5303661449706,0.48201777663570766,0.011956925015104147,10.953500647892934,0.5959775010073073
74.0,20.533976982827717,0.48218404238714613,0.011953216336233979,10.953038092458774,0.5959824517593592
75.0,20.537587789883812,0.48235033526405946,0.011949507898848572,10.952575524397917,0.595987336241257
76.0,20.54119856558097,0.4825166552252656,0.011945799702966735,10.952112943774463,0.595992176435571
77.0,20.544809309360666,0.4826830022295166,0.01194209174859885,10.951650350652574,0.5959972657332148
78.0,20.548420020663805,0.48284937623551144,0.01193838403574711,10.951187745096487,0.5960022412910116
79.0,20.552030698930714,0.48301577720188155,0.011934676564405845,10.9507251271705,0.5960070687194898
80.0,20.555641343601103,0.4831822050872037,0.011930969299138061,10.950262496939326,0.5960118440442638
81.0,20.559251954114114,0.4833486598499938,0.011927262261315935,10.949799854467535,0.5960165992056381
82.0,20.562862529908305,0.4835151414487049,0.011923555470658856,10.949337199819578,0.5960212274889455
83.0,20.566473070421644,0.4836816498417324,0.0119198489271485,10.948874533059975,0.5960256249089496
84.0,20.57008357509151,0.4838481849874123,0.011916142630754578,10.948411854253312,0.5960331447168293
85.0,20.573694043354692,0.4840147468440234,0.011912436581434982,10.947949163464248,0.5960402267963464
86.0,20.57730447464739,0.4841813353697759,0.011908730779135988,10.947486460757508,0.5960473046298391
87.0,20.580914868405237,0.4843479505228281,0.011905025221600996,10.947023746197894,0.5960539601683646
88.0,20.584525224063253,0.4845145922612786,0.011901319899588082,10.946561019850305,0.5960596325165595
89.0,20.588135541055877,0.48468126054315525,0.011897614813058312,10.94609828177971,0.5960637983576366
90.0,20.591745818816975,0.4848479553264389,0.011893909960385357,10.945635532051156,0.5960710425020063
91.0,20.59535605677982,0.48501467656904995,0.011890205337539709,10.945172770729803,0.5960782555294891
92.0,20.598966254377082,0.48518142422883875,0.011886500940609933,10.944709997880917,0.5960849266134961
93.0,20.602576411040864,0.4853481982636027,0.011882796764883607,10.944247213569886,0.5960916741661088
94.0,20.60618652620267,0.4855149986310803,0.011879092810511914,10.943784417862162,0.5960982010828403
95.0,20.60979659929343,0.4856818252889477,0.011875389077667988,10.943321610823263,0.596104652692352
96.0,20.61340662974347,0.48584867819482475,0.01187168556654682,10.94285879251877,0.5961108098581384
97.0,20.617016616982546,0.4860155573062646,0.01186798227736495,10.942395963014325,0.5961169010503474
98.0,20.620626560439813,0.48618246258076897,0.01186427921036046,10.941933122375643,0.5961229279741375
99.0,20.62423645954385,0.4863493939757755,0.011860576365792706,10.941470270668493,0.596128721441721
100.0,20.62784631372264,0.48651635144865896,0.011856873701520538,10.941007407957958,0.5961343827421358
101.0,20.631456122403584,0.48668333495674204,0.011853171250796758,10.940544534309767,0.5961399987886027
102.0,20.635065885013503,0.4868503444572823,0.011849469023832108,10.940081649789892,0.5961454398783742
103.0,20.63867560097861,0.48701737990748123,0.011845767021004506,10.93961875446437,0.5961504101301974
104.0,20.642285269724546,0.4871844412644773,0.011842065242710715,10.939155848399293,0.5961556414506329
105.0,20.64589489067636,0.48735152848535024,0.011838363689366055,10.93869293166083,0.5961625760059363
106.0,20.64950446325852,0.48751864152712515,0.011834662361403996,10.938230004315203,0.596168481686754
107.0,20.653113986894898,0.4876857803467587,0.011830961259275704,10.937767066428703,0.5961740489257569
108.0,20.656723461008795,0.48785294490115483,0.011827260382572037,10.937304118067678,0.5961797229206404
109.0,20.66033288502291,0.48802013514715564,0.011823559731493868,10.936841159298536,0.5961853049503838
110.0,20.66394225835936,0.48818735104154315,0.011819859301921802,10.936378190187767,0.5961907025055
111.0,20.667551580439675,0.4883545925410429,0.011816159056998874,10.93591521080205,0.5961960202395064
112.0,20.6711608506848,0.48852185960231614,0.011812459040428474,10.935452221207978,0.5962013066786394
113.0,20.674770068515087,0.48868915218196873,0.011808759252911388,10.93498922147221,0.5962071306033329
114.0,20.678379233350313,0.48885647023654694,0.011805059695160604,10.934526211661465,0.5962133064835287
115.0,20.681988344609668,0.4890238137225338,0.011801360367900545,10.934063191842524,0.5962201465352158
116.0,20.68559740171174,0.48919118259635835,0.011797661270427556,10.933600162082243,0.5962269559341236
117.0,20.689206404074532,0.4893585768143887,0.011793962394869288,10.933137122447603,0.5962335232747337
118.0,20.69281535111548,0.48952599633292976,0.0117902637421055,10.93267407300564,0.5962399449645602
119.0,20.696424242251425,0.48969344110823343,0.01178656531303793,10.932211013823459,0.5962461365932707
120.0,20.70003307689861,0.48986091109648716,0.01178286710858926,10.93174794496822,0.5962522001057904
121.0,20.703641854472696,0.49002840625381855,0.011779169111056267,10.931284866507099,0.596258171410342
122.0,20.707250574388773,0.4901959265363018,0.01177547132060802,10.930821778507323,0.5962645364640485
123.0,20.71085923606132,0.49036347189995144,0.011771773758236456,10.930358681036244,0.5962706836381463
124.0,20.714467838904255,0.49053104230071004,0.011768076424948358,10.929895574161277,0.5962766827837066
125.0,20.71807638233089,0.4906986376944842,0.011764379321765269,10.929432457949895,0.596282261550519
126.0,20.72168486575395,0.49086625803710054,0.011760682449722431,10.928969332469633,0.5962872869477684
127.0,20.725293288585593,0.49103390328433133,0.011756985809867226,10.928506197788089,0.5962920160652799
128.0,20.728901650237376,0.49120157339189935,0.011753289403258118,10.928043053972923,0.5962967417233752
129.0,20.73250995012026,0.49136926831545874,0.011749593230963397,10.927579901091852,0.596302173090248
130.0,20.736118187644642,0.49153698801060863,0.011745897294059691,10.927116739212659,0.5963072295593719
131.0,20.739726362220317,0.49170473243288654,0.01174220159363106,10.926653568403188,0.5963116581330195
132.0,20.7433344732565,0.49187250153777456,0.011738506106638753,10.92619038872781,0.5963156572800223
133.0,20.746942520161813,0.49204029528069143,0.011734810847105794,10.925727200253037,0.5963194081405055
134.0,20.750550502344296,0.49220811361699573,0.011731115825978463,10.925264003046918,0.596323040537667
135.0,20.75415841921139,0.4923759565020002,0.011727421044387664,10.924800797177552,0.596326684910716
136.0,20.757766270169963,0.4925438238909397,0.011723726503465712,10.924337582713108,0.5963308729164821
137.0,20.761374054626287,0.49271171573900285,0.011720032204345155,10.923874359721815,0.5963337301024971
138.0,20.764981771986058,0.4928796320013196,0.011716338148157637,10.923411128271963,0.5963374337472985
139.0,20.768589421654372,0.4930475726329557,0.011712644336032502,10.92294788843191,0.5963424819246316
140.0,20.77219700303575,0.4932155375889138,0.011708950769095564,10.922484640270069,0.5963468939872731
141.0,20.77580451553411,0.49338352682415065,0.011705257448467857,10.922021383854917,0.5963511792748765
142.0,20.779411958552807,0.49355154029355547,0.011701564375264222,10.921558119254994,0.59635556805362
143.0,20.783019331494582,0.49371957795196125,0.011697871527656918,10.921094846537073,0.5963604063991423
144.0,20.78662663376161,0.49388763975413896,0.011694178905558834,10.920631565768078,0.596365223655496
145.0,20.79023386475546,0.4940557256548046,0.011690486532705815,10.920168277016707,0.5963705659836652
146.0,20.793841023877118,0.494223835608615,0.011686794391967572,10.919704980351547,0.5963760356532272
147.0,20.79744811052699,0.49439196957016224,0.011683102502123469,10.919241675841409,0.5963811141450965
148.0,20.801055124104884,0.49456012749399486,0.011679410865365452,10.918778363555173,0.596386070787941
149.0,20.804662064010017,0.49472830933458184,0.011675719482804473,10.918315043561778,0.5963921303321393
150.0,20.808268929641038,0.4948965150463514,0.011672028355535711,10.917851715930226,0.5963987068438338
151.0,20.81187572039599,0.4950647445836633,0.011668337484636963,10.91738838072958,0.5964051224151051
152.0,20.815482435672322,0.4952329979008186,0.01166464687116647,10.916925038028968,0.5964110496578758
153.0,20.81908907486693,0.49540127495206826,0.011660956503859453,10.916461687897394,0.5964168330430496
154.0,20.822695637376082,0.49556957569159227,0.011657266365503498,10.915998330403598,0.5964223839624372
155.0,20.826302122595468,0.49573790007352286,0.011653576484766762,10.915534965616914,0.5964279373073333
156.0,20.829908529920207,0.4959062480519256,0.011649886862756887,10.915071593606731,0.5964337037128356
157.0,20.833514858744813,0.4960746195808152,0.011646197500555663,10.914608214442504,0.596439493651641
158.0,20.83712110846321,0.4962430146141401,0.011642508399217261,10.914144828193749,0.5964453896195153
159.0,20.840727278468748,0.4964114331057923,0.011638819559766478,10.913681434930037,0.5964513829566647
160.0,20.84433336815416,0.49657987500960993,0.0116351309830536,10.913218034721007,0.5964574105799945
161.0,20.84793937691159,0.49674834027936443,0.011631442669646467,10.912754627636351,0.5964636192899038
162.0,20.851545304132586,0.4969168288687768,0.011627754620541154,10.912291213745824,0.5964697208263837
163.0,20.855151149208115,0.49708534073149996,0.011624066836697379,10.91182779311924,0.5964758118313738
164.0,20.85875691152854,0.4972538758211364,0.011620379319036964,10.911364365826481,0.5964819992241447
165.0,20.862362590483666,0.4974224340912216,0.011616692068442592,10.910900931937489,0.5964881085443591
166.0,20.86596818546267,0.4975910154952455,0.011613005085756559,10.910437491522266,0.5964939629487874
167.0,20.869573695854164,0.49775961998662965,0.01160931837058204,10.909974044650887,0.5964993704006076
168.0,20.873179121046178,0.4979282475187355,0.011605631909646828,10.909510591393135,0.5965043809199044
169.0,20.876784460426126,0.4980968980448697,0.011601945695876366,10.909047131818655,0.5965094618851857
170.0,20.88038971338085,0.49826557151829093,0.011598259751081426,10.908583665997716,0.5965148779030636
171.0,20.883994879296598,0.49843426789217443,0.011594574076029065,10.908120194000658,0.5965204792758703
172.0,20.88759995755904,0.49860298711966217,0.01159088867143995,10.90765671589788,0.5965268604721184
173.0,20.891204947553234,0.4987717291538245,0.01158720353798789,10.907193231759846,0.5965331644029155
174.0,20.894809848663662,0.49894049394767376,0.011583518676299122,10.906729741657086,0.5965393672960965
175.0,20.898414660274213,0.4991092814541675,0.011579834084049995,10.906266245660198,0.5965456332600252
176.0,20.90201938176819,0.4992780916262037,0.011576149759226658,10.905802743839844,0.5965520032772054
177.0,20.905624012528303,0.4994469244166199,0.011572465702344497,10.905339236266753,0.5965582836452792
178.0,20.909228551936657,0.49961577977820065,0.011568781913875024,10.904875723011722,0.5965644772558013
179.0,20.912832999374796,0.4997846576636665,0.011565098394245793,10.904412204145606,0.5965705563981646
180.0,20.916437354223646,0.49995355802568153,0.011561415143800189,10.903948679739328,0.5965765588161005
181.0,20.920041615863557,0.5001224808168488,0.011557732161510452,10.903485149863862,0.5965822234504253
182.0,20.923645783674274,0.5002914259897152,0.01155404944767807,10.90302161459024,0.5965872897821666
183.0,20.927249857034973,0.5004603934967775,0.011550367002562446,10.902558073989569,0.5965915700858208
184.0,20.930853835324214,0.5006293832904593,0.011546684826351565,10.902094528133013,0.5965953587051803
185.0,20.93445771791998,0.5007983953231344,0.011543002894139861,10.901630977090528,0.5966010076111249
186.0,20.938061504199656,0.5009674295471145,0.011539321205665311,10.901167420932588,0.5966070662659572
187.0,20.941665193540032,0.5011364859146566,0.011535639786927742,10.90070385973057,0.5966127582176531
188.0,20.94526878531731,0.501305564377959,0.011531958638019268,10.90024029355592,0.596618832647589
189.0,20.948872278907096,0.5014746648891589,0.011528277739186877,10.899776722479897,0.5966248409034689
190.0,20.952475673684404,0.5016437874003365,0.011524597044011946,10.8993131465737,0.5966309609034366
191.0,20.956078969023658,0.5018129318635133,0.01152091660538315,10.898849565908796,0.5966378186951445
192.0,20.959682164298478,0.5019820982306438,0.011517236432607846,10.898385980556817,0.5966447276366448
193.0,20.963285258881697,0.5021512864536047,0.011513556523144562,10.897922390589413,0.5966501561897317
