k,PSNR,SSIM,mse,Log-Gradient,Angle
0.0,20.267287877211714,0.46998399460325874,0.0,10.98716179161679,0.5930897036391504
1.0,20.270368375580414,0.47012203266612645,0.010255115083225593,10.986763917554942,0.5954908042320063
2.0,20.273954027200517,0.4702848674150852,0.012086536950708758,10.986305551886078,0.5955111174936571
3.0,20.277562088225256,0.47044891695998853,0.012194331440395693,10.985844525176635,0.5955141359019513
4.0,20.281171730341157,0.4706130878505069,0.012202659890773015,10.985383284301246,0.5955145132609935
5.0,20.284781302566678,0.4707772890370237,0.012200664385430809,10.984922030281224,0.595519289676269
6.0,20.288390557949633,0.4709415065865123,0.012196619014344778,10.984460796541326,0.5955272134800426
7.0,20.291999444035454,0.4711057373842456,0.012192028131688508,10.983999591096413,0.5955353955943589
8.0,20.29560794516387,0.4712699804022333,0.012187206210268054,10.983538417166464,0.5955406825255812
9.0,20.299216055302264,0.4714342352138707,0.012182294651277278,10.983077276038088,0.5955469398033243
10.0,20.302823771876145,0.4715985016256448,0.01217733826961485,10.98261616839129,0.5955532819094098
11.0,20.306431092485283,0.4717627794763932,0.012172347968728564,10.982155094701037,0.5955599137841004
12.0,20.310038015804036,0.471927068659459,0.012167334410726321,10.981694055320267,0.5955667328333288
13.0,20.313644540798705,0.47209136908659177,0.012162309039720882,10.981233050473042,0.5955737371139066
14.0,20.31725066666747,0.47225568068689067,0.01215727541916221,10.98077208035501,0.5955811904274521
15.0,20.320856392686856,0.47242000339448165,0.012152236716009934,10.980311145097797,0.595588569304971
16.0,20.324461718156805,0.47258433715185655,0.012147194461802704,10.979850244830672,0.5955959167104903
17.0,20.328066642266606,0.4727486818933482,0.012142147801596476,10.979389379676649,0.5956032927495306
18.0,20.33167116439889,0.47291303756687636,0.01213709945957791,10.97892854974772,0.5956106383247205
19.0,20.33527528396519,0.47307740412172156,0.0121320520892746,10.97846775513494,0.595617989635138
20.0,20.338879000384082,0.4732417815072125,0.012127002898652801,10.978006995939454,0.5956253216556827
21.0,20.342482313075855,0.47340616967282706,0.012121951981597526,10.977546272259683,0.5956332960344078
22.0,20.34608522146202,0.4735705685681251,0.012116901084898902,10.97708558418628,0.5956412672863002
23.0,20.349687724964966,0.4737349781427362,0.012111851505441496,10.976624931798913,0.5956492336207454
24.0,20.353289823007692,0.4738993983463349,0.012106803267560064,10.97616431517648,0.5956570924880868
25.0,20.356891515013636,0.4740638291286081,0.012101756139562042,10.975703734395504,0.5956648398574312
26.0,20.360492800406508,0.47422827043926524,0.01209670907199665,10.975243189525305,0.595672545680459
27.0,20.364093678610175,0.4743927222280055,0.012091660592633826,10.97478268065775,0.5956803249622992
28.0,20.36769414904862,0.4745571844445309,0.012086613082846812,10.97432220787113,0.5956881294550332
29.0,20.37129421114586,0.4747216570385242,0.012081566827793239,10.97386177124207,0.5956959231093722
30.0,20.374893864325916,0.4748861399596554,0.012076521832492308,10.973401370847016,0.5957037525484082
31.0,20.378493108012755,0.4750506331575772,0.012071478100394765,10.972941006762284,0.5957115191820187
32.0,20.382091941629138,0.47521513658149245,0.012066435223317034,10.972480679065121,0.5957191772386575
33.0,20.385690364598815,0.4753796501809098,0.012061393235061155,10.972020387832275,0.5957267242473628
34.0,20.389288376345785,0.4755441739054566,0.012056352491473672,10.971560133139741,0.5957341391466529
35.0,20.392885976293954,0.47570870770472745,0.012051312684460538,10.971099915061224,0.5957414588770295
36.0,20.396483163861603,0.47587325152786386,0.012046273804405802,10.97063973367216,0.595748707268985
37.0,20.40007993846961,0.476037805324204,0.012041235986270514,10.970179589048142,0.5957558606168942
38.0,20.403676299541754,0.4762023690432861,0.01203619939928736,10.969719481264999,0.5957629613788731
39.0,20.407272246501684,0.4763669426346338,0.012031163947728036,10.969259410398951,0.5957699896531535
40.0,20.410867778772893,0.4765315260477411,0.012026128769847488,10.968799376534408,0.5957769697548206
41.0,20.414462895778733,0.47669611923205896,0.012021094783139718,10.968339379747546,0.5957838824806121
42.0,20.41805759694242,0.47686072213701874,0.012016062035704154,10.967879420113885,0.5957907367135091
43.0,20.421651881686987,0.47702533471202463,0.012011030527534685,10.967419497708951,0.5957974528972226
44.0,20.42524574943532,0.47718995690645044,0.012006000158901808,10.966959612608113,0.5958040462205324
45.0,20.428839199610138,0.47735458866962904,0.012000970978060363,10.966499764886818,0.5958105334028203
46.0,20.43243223163401,0.47751922995088,0.011995943029482176,10.966039954620596,0.595816847206586
47.0,20.43602484492933,0.4776838806994806,0.01199091599632635,10.96558018188336,0.5958229460362686
48.0,20.439617038918346,0.47784854086468176,0.01198588995353007,10.965120446750472,0.5958295233319779
49.0,20.443208813023105,0.478013210395708,0.01198086495457479,10.964660749294799,0.5958363792371913
50.0,20.446800166665522,0.4781778892417508,0.011975840991808272,10.964201089589373,0.5958433063050513
51.0,20.45039109926733,0.47834257735196956,0.011970818215409277,10.963741467709669,0.5958498963650729
52.0,20.453981610250082,0.4785072746754939,0.011965796506432671,10.963281883730575,0.5958559085127758
53.0,20.45757169903519,0.47867198116142756,0.011960775985509757,10.962822337727575,0.5958616548494973
54.0,20.461161365043875,0.4788366967588414,0.011955756676478402,10.96236282977628,0.5958672404249817
55.0,20.464750607697212,0.4790014214167764,0.011950738579454825,10.961903359952322,0.5958728245285391
56.0,20.46833942641609,0.47916615508424215,0.011945721694529081,10.961443928331349,0.5958784333163604
57.0,20.471927820621254,0.47933089771022347,0.01194070602176849,10.960984534989027,0.595884699917628
58.0,20.475515789733247,0.4794956492436681,0.011935691433239035,10.9605251800019,0.5958910222196506
59.0,20.479103333172482,0.47966040963349926,0.011930677998204579,10.960065863446038,0.5958972509916466
60.0,20.4826904503592,0.47982517882860637,0.011925665776442315,10.95960658539714,0.5959034366013505
61.0,20.48627714071347,0.47998995677785766,0.011920654768090615,10.959147345930916,0.5959095370677162
62.0,20.489863403655182,0.4801547434300843,0.011915644973273421,10.958688145123096,0.5959155196930715
63.0,20.4934492386041,0.48031953873408123,0.011910636392102367,10.958228983049434,0.5959213808587448
64.0,20.4970346449798,0.4804843426386321,0.011905629024678123,10.957769859785703,0.5959272344129614
65.0,20.50061962220168,0.4806491550924729,0.011900622871091861,10.957310775407693,0.5959330110202666
66.0,20.504204169689007,0.48081397604432574,0.011895617931426456,10.956851729991218,0.5959387600753681
67.0,20.507788286860865,0.48097880544287097,0.011890614205757351,10.95639272361211,0.5959443770861984
68.0,20.51137197313619,0.4811436432367664,0.011885611694153494,10.955933756346225,0.5959499381779546
69.0,20.51495522793374,0.4813084893746418,0.01188061039667814,10.955474828269434,0.5959554378087554
70.0,20.518538050672124,0.48147334380509044,0.011875610236817052,10.95501593945767,0.5959607709672772
71.0,20.522120440769783,0.4816382064766813,0.011870611244949886,10.95455708998686,0.595965951934828
72.0,20.52570239764502,0.48180307733795674,0.011865613472102443,10.954098279932921,0.5959710194120403
73.0,20.52928392071594,0.48196795633743017,0.011860616918328406,10.953639509371797,0.5959759999014487
74.0,20.532865009400524,0.4821328434235765,0.011855621583672626,10.953180778379444,0.5959809232451142
75.0,20.53644566311658,0.48229773854485725,0.01185062746817132,10.952722087031852,0.5959857917076777
76.0,20.540025881281757,0.4824626416496951,0.011845634571852552,10.952263435405024,0.5959905819945727
77.0,20.54360566331356,0.4826275526864828,0.011840642894736391,10.951804823574989,0.5959955579769008
78.0,20.547185008629324,0.48279247160359534,0.011835652436835183,10.951346251617796,0.5960005648244856
79.0,20.55076391664624,0.4829573983493638,0.011830663188683222,10.950887719609605,0.5960053720079465
80.0,20.554342386781332,0.483122332872105,0.011825675112722839,10.950429227626959,0.5960101103242553
81.0,20.557920418451484,0.4832872751201025,0.011820688261656767,10.949970775745916,0.5960148723262563
82.0,20.561498011073418,0.4834522250416107,0.01181570263549088,10.949512364042556,0.5960194658314116
83.0,20.565075164063703,0.4836171825848508,0.011810718234219317,10.949053992592981,0.5960240828648566
84.0,20.568651876838764,0.48378214769803063,0.011805735057824836,10.948595661473314,0.5960302735834965
85.0,20.572228148814865,0.48394712032931503,0.011800753106278884,10.9481373707597,0.5960373259010233
86.0,20.575803979408125,0.48411210042684677,0.011795772379541776,10.947679120528305,0.5960443676595404
87.0,20.57937936803451,0.4842770879387473,0.011790792877562867,10.947220910855318,0.5960511829145102
88.0,20.58295431410983,0.4844420828130976,0.01178581459034867,10.94676274181698,0.5960573040805097
89.0,20.58652881704976,0.4846070849979618,0.011780837516517513,10.94630461348956,0.5960621576292945
90.0,20.590102876269825,0.48477209444137087,0.011775861656021598,10.945846525949337,0.5960676307751641
91.0,20.593676491185388,0.48493711109133164,0.01177088700330826,10.945388479272678,0.596074896570026
92.0,20.59724966121167,0.4851021348958195,0.011765913557641373,10.944930473535969,0.5960817376296031
93.0,20.60082238576377,0.4852671658027872,0.011760941311184511,10.944472508815704,0.5960883341481918
94.0,20.604394664256603,0.48543220376015794,0.011755970264099153,10.944014585188395,0.5960949659094612
95.0,20.607966496104968,0.48559724871583043,0.011751000416569088,10.943556702730572,0.5961013614736647
96.0,20.61153788072351,0.4857623006176702,0.011746031768800078,10.943098861518779,0.5961076290994284
97.0,20.615108817526732,0.4859273594135199,0.011741064321019718,10.942641061629576,0.5961136088543776
98.0,20.618679305928996,0.4860924250512007,0.011736098073477462,10.942183303139542,0.5961196851827112
99.0,20.622249345344517,0.4862574974784957,0.011731133026444076,10.941725586125267,0.5961255172319139
100.0,20.625818935187368,0.48642257664317173,0.011726169140153802,10.941267910662653,0.5961311739681237
101.0,20.6293880748715,0.48658766249296015,0.011721206442697906,10.940810276828108,0.5961367239242495
102.0,20.63295676381069,0.48675275497557635,0.011716244947115217,10.940352684698272,0.5961422545409163
103.0,20.6365250014186,0.48691785403869897,0.011711284653796257,10.93989513434981,0.5961475256495558
104.0,20.64009278710875,0.48708295962998593,0.011706325563150773,10.93943762585939,0.5961520462133519
105.0,20.643660120294513,0.4872480716970686,0.01170136767560712,10.938980159303709,0.5961583751412879
106.0,20.64722700038913,0.4874131901875523,0.011696410991612125,10.938522734759466,0.596164783702534
107.0,20.650793426805706,0.48757831504901145,0.01169145551163057,10.938065352303383,0.5961704230852605
108.0,20.65435939895722,0.4877434462290043,0.011686501235787164,10.937608012012191,0.5961759853345988
109.0,20.657924916256498,0.48790858367505247,0.011681548163739949,10.937150713962629,0.5961815216810237
110.0,20.66148997811624,0.4880737273346618,0.011676596294394716,10.93669345823146,0.596187015013219
111.0,20.66505458394902,0.48823887715530523,0.011671645584487196,10.936236244895603,0.5961922975280939
112.0,20.668618733167254,0.4884040330844317,0.011666696081150493,10.93577907403184,0.5961975156057686
113.0,20.672182425183255,0.488569195069467,0.01166174778509924,10.935321945716959,0.5962028931358854
114.0,20.675745659409195,0.48873436305780943,0.011656800697060774,10.934864860027764,0.596208613108927
115.0,20.679308435257102,0.48889953699682964,0.011651854817774067,10.934407817041073,0.5962149721657534
116.0,20.682870752138886,0.4890647168338847,0.011646910147989109,10.933950816833717,0.5962217599385078
117.0,20.686432609466326,0.48922990251628845,0.011641966683028753,10.933493859482574,0.5962284131040846
118.0,20.68999400665107,0.4893950939913425,0.011637024419217976,10.93303694506457,0.5962348767716886
119.0,20.69355494310464,0.4895602912063228,0.011632083357468466,10.932580073656645,0.5962411609914894
120.0,20.69711541823843,0.48972549410847427,0.011627143498713091,10.932123245335742,0.5962472300973817
121.0,20.7006754314637,0.4898907026450215,0.011622204829062864,10.93166646017878,0.5962531871256668
122.0,20.704234982191593,0.4900559167631662,0.011617267340792778,10.931209718262664,0.5962591365284012
123.0,20.707794069833124,0.49022113641007636,0.01161233105901765,10.930753019664378,0.596265371573657
124.0,20.71135269379917,0.49038636153290854,0.01160739598475592,10.930296364460917,0.596271419449307
125.0,20.714910853500513,0.49055159207878524,0.011602462119041297,10.929839752729288,0.5962772998076643
126.0,20.718468548347786,0.49071682799480665,0.011597529462921355,10.929383184546513,0.5962827434623181
127.0,20.72202577775151,0.490882069228048,0.011592598017456393,10.928926659989617,0.5962876593453806
128.0,20.725582541122073,0.4910473157255659,0.011587667783718171,10.92847017913564,0.5962922948856405
129.0,20.72913883786976,0.49121256743438774,0.011582738762788617,10.928013742061635,0.5962969500379964
130.0,20.732694667404708,0.49137782430151805,0.011577810955758626,10.927557348844658,0.5963023156369183
131.0,20.73625002913696,0.49154308627393667,0.011572884363726749,10.927100999561784,0.5963072802813181
132.0,20.73980492247643,0.49170835329860246,0.011567958978390818,10.926644694288752,0.5963116330996358
133.0,20.743359346832907,0.491873625322447,0.011563034783939092,10.926188433099052,0.5963155705085348
134.0,20.74691330161606,0.4920389022923799,0.011558111806470338,10.9257322160698,0.5963192622410594
135.0,20.75046678623544,0.49220418415528583,0.011553190047132636,10.925276043278124,0.5963228366224373
136.0,20.75401980010049,0.49236947085803134,0.011548269507075689,10.924819914801166,0.5963263923051637
137.0,20.757572342620524,0.492534762347452,0.011543350187450122,10.924363830716073,0.596330382551795
138.0,20.761124413204747,0.49270005857036364,0.011538432089405939,10.923907791100008,0.5963330949106466
139.0,20.764676011262253,0.49286535947356186,0.011533515214091556,10.923451796030143,0.5963371833452694
140.0,20.768227136202007,0.49303066500381404,0.011528599562652399,10.922995845583657,0.5963419026702493
141.0,20.771777787432868,0.49319597510786534,0.011523685136229563,10.922539939837742,0.5963462251021577
142.0,20.77532796436357,0.4933612897324406,0.01151877193595861,10.9220840788696,0.5963504339224049
143.0,20.77887766640277,0.49352660882424165,0.011513859962968356,10.921628262756446,0.5963547013039053
144.0,20.782426892958977,0.4936919323299443,0.01150894917422375,10.921172491572085,0.5963594919975854
145.0,20.78597564344058,0.493857260196203,0.01150403961087542,10.920716765393623,0.5963642661804223
146.0,20.78952391725589,0.4940225923696519,0.01149913126433236,10.920261084298161,0.5963693461199403
147.0,20.793071713813077,0.49418792879689993,0.011494224141511054,10.919805448362858,0.5963747672747135
148.0,20.796619032520205,0.49435326942453833,0.011489318250631554,10.919349857664944,0.5963798767045894
149.0,20.800165872785243,0.49451861419912396,0.011484413592827335,10.91889431228166,0.5963847967693734
150.0,20.80371223401604,0.4946839630672044,0.011479510169217092,10.918438812290251,0.596390074285588
151.0,20.807258115620332,0.4948493159752994,0.011474607980903035,10.917983357767975,0.596396705948017
152.0,20.81080351700576,0.49501467286990675,0.011469707028968825,10.917527948792097,0.5964030892151642
153.0,20.81434843757984,0.49518003369750124,0.011464807314478095,10.91707258543989,0.5964090552724571
154.0,20.817892876750005,0.4953453984045411,0.011459908814265804,10.916617267788217,0.5964147894032821
155.0,20.82143683392355,0.49551076693745455,0.011455011535178722,10.916161995914106,0.5964203233544626
156.0,20.824980308507698,0.4956761392426517,0.011450115493799316,10.915706769894879,0.5964257130256544
157.0,20.828523299909534,0.4958415152665226,0.011445220691234463,10.915251589807863,0.5964313324031842
158.0,20.83206580753606,0.4960068949554322,0.011440327128564569,10.914796455730395,0.5964369723307573
159.0,20.83560783079417,0.4961722782557252,0.011435434806841855,10.914341367739823,0.5964427160842424
160.0,20.83914936909065,0.4963376651137297,0.01143054372708877,10.913886325913499,0.5964485463356318
161.0,20.842690421832177,0.49650305547574236,0.01142565389029645,10.913431330328784,0.5964544388753149
162.0,20.846230988425315,0.4966684492880434,0.011420765297114506,10.912976381063041,0.5964604270636681
163.0,20.849771068276528,0.49683384649689205,0.01141587794830932,10.912521478193646,0.596466467234328
164.0,20.853310660792168,0.4969992470485292,0.011410991844835034,10.912066621797976,0.5964724122847751
165.0,20.85684976537849,0.497164650889161,0.011406106987608041,10.911611811953422,0.5964783914855177
166.0,20.860388381441652,0.4973300579649911,0.01140122337750562,10.91115704873738,0.5964844517337948
167.0,20.86392650838771,0.49749546822218726,0.01139634101505589,10.910702332227261,0.5964903673676687
168.0,20.867464145622613,0.4976608816069053,0.011391459900848885,10.910247662500481,0.5964959780935347
169.0,20.87100129255223,0.49782629806527384,0.011386580020520677,10.9097930396341,0.5965010672033102
170.0,20.874537948582322,0.4979917175434076,0.0113817013685716,10.909338463705042,0.5965059556525297
171.0,20.87807411311854,0.4981571399873958,0.011376823965680322,10.908883934790769,0.5965109790993385
172.0,20.88160978556646,0.49832256534330316,0.011371947812606805,10.908429452968743,0.5965163775712897
173.0,20.88514496533155,0.4984879935571851,0.01136707291006543,10.907975018316447,0.5965220468506496
174.0,20.888679651819185,0.4986534245750664,0.011362199258724195,10.907520630911364,0.5965283153223371
175.0,20.89221384443464,0.4988188583429569,0.011357326859204446,10.90706629083099,0.596534448393745
176.0,20.895747542583095,0.4989842948068392,0.011352455712080198,10.906611998152833,0.5965405180156623
177.0,20.899280745669646,0.4991497339126852,0.01134758581319619,10.906157752954414,0.5965467250845272
178.0,20.902813453099288,0.4993151756064405,0.011342717162389618,10.905703555313266,0.5965529215750701
179.0,20.906345664276923,0.49948061983403197,0.011337849760127779,10.90524940530693,0.5965590667084413
180.0,20.909877378607355,0.4996460665413664,0.011332983606834907,10.904795303012959,0.596565104185559
181.0,20.913408595495294,0.4998115156743305,0.011328118702892355,10.904341248508912,0.5965710330325767
182.0,20.916939314345385,0.49997696717878704,0.01132325504759929,10.903887241872349,0.596576896157082
183.0,20.920469534562145,0.5001424210005886,0.011318392640904368,10.903433283180833,0.5965824222870179
184.0,20.923999255550008,0.5003078770855586,0.011313531483067444,10.902979372511938,0.596587364186964
185.0,20.92752847671335,0.5004733353795041,0.011308671567750384,10.902525509942926,0.5965915249636808
186.0,20.931057197456408,0.5006387958282148,0.011303812882891687,10.902071695550461,0.5965951413002867
187.0,20.934585417183364,0.5008042583774557,0.011298955429357648,10.901617929411573,0.5966006122189564
188.0,20.938113135298295,0.5009697229729736,0.011294099218329773,10.901164211603652,0.5966065700955469
189.0,20.941640351205187,0.501135189560501,0.011289244257328013,10.900710542204331,0.5966121227081228
190.0,20.94516706430795,0.5013006580857474,0.011284390539404918,10.900256921291124,0.5966179907704358
191.0,20.94869327401039,0.5014661284943996,0.01127953800593725,10.899803348941177,0.5966242595815776
192.0,20.952218979716154,0.5016316007321252,0.011274686697436549,10.899349825232022,0.5966307322079581
193.0,20.95574418082844,0.5017970747445464,0.011269836633065251,10.898896350241207,0.5966373652421039
