k,PSNR,SSIM,mse,Log-Gradient,Angle
0.0,20.267287877211714,0.46998399460325874,0.0,10.98716179161679,0.5930897036391504
1.0,20.270368677552575,0.470122046198621,0.010256120250154975,10.986763878550803,0.5954908049580242
2.0,20.27395498271284,0.4702849104520939,0.012088713868747374,10.98630542892829,0.5955111189530422
3.0,20.277564051138206,0.4704490056030834,0.012197699165254658,10.985844273036347,0.5955141406705574
4.0,20.28117505474837,0.47061323822265316,0.012207221699800718,10.985382857712688,0.59551452269692
5.0,20.284786342635364,0.4707775172737671,0.012206420322886286,10.984921383961261,0.595519299996377
6.0,20.28839766789656,0.470941828834615,0.01220356849695716,10.984459885192779,0.5955272293009589
7.0,20.292008978121604,0.4711061698013627,0.012200170395553827,10.983998369408878,0.595535419059578
8.0,20.295620257692693,0.47127053915679923,0.012196540438627885,10.983536839816674,0.5955407108714378
9.0,20.299231500618742,0.47143493648503165,0.012192819996666125,10.98307529769009,0.5955469742636418
10.0,20.30284270436629,0.47159936160322835,0.012189053874069876,10.982613743696541,0.5955533238777487
11.0,20.306453866575627,0.4717638143608725,0.01218525297064889,10.982152178298483,0.5955599630579561
12.0,20.310064985961137,0.4719282946619074,0.012181427943993529,10.981690601836423,0.5955667917420399
13.0,20.31367606152881,0.472092802428671,0.012177590233520177,10.981229014522038,0.5955738032465022
14.0,20.317287092516114,0.47225733760082117,0.012173743400852647,10.980767416538649,0.5955812662523263
15.0,20.320898078238507,0.4724219001230101,0.012169890612175764,10.980305808005603,0.5955886566149359
16.0,20.324509018034526,0.4725864899482377,0.012166033398746843,10.979844189039918,0.5955960165827915
17.0,20.328119911131644,0.47275110702130857,0.012162170904797556,10.979382559752413,0.5956034064331451
18.0,20.33173075695038,0.4729157513006039,0.012158305853581606,10.978920920242912,0.595610765998266
19.0,20.335341554939728,0.47308042274582984,0.012154440895985812,10.978459270590367,0.5956181293808511
20.0,20.338952304555434,0.4732451213167208,0.012150573243601685,10.977997610883829,0.5956254774953463
21.0,20.34256300525457,0.4734098469731311,0.012146702989513343,10.977535941209684,0.5956334499319808
22.0,20.3461736564951,0.4735745996749747,0.01214283187808218,10.977074261646596,0.5956414375257056
23.0,20.34978425773552,0.47373937938221733,0.01213896120594345,10.976612572262267,0.5956494194267371
24.0,20.35339480843458,0.4739041860548319,0.012135090997432742,10.976150873123679,0.5956572942392107
25.0,20.357005308051086,0.47406901965278975,0.012131221021267583,10.975689164295467,0.5956650587997238
26.0,20.36061575604382,0.4742338801360535,0.01212735023182374,10.97522744583509,0.5956727844308417
27.0,20.36422615187132,0.47439876746455206,0.012123477154333994,10.974765717822612,0.5956805889156884
28.0,20.367836494991916,0.47456368159819046,0.012119604168160693,10.974303980324562,0.5956884162390654
29.0,20.371446784863597,0.4747286224968339,0.012115731558854675,10.97384223340583,0.5956962315225194
30.0,20.375057020944006,0.47489359012030624,0.01211185933145136,10.973380477131172,0.5957040812726215
31.0,20.378667202690387,0.4750585844283866,0.012107987489418477,10.972918711565248,0.5957118699333016
32.0,20.382277329558423,0.4752236053803826,0.012104115625717688,10.972456936773687,0.5957195475376126
33.0,20.385887401004403,0.47538865293588817,0.01210024377333242,10.971995152821659,0.5957271156202198
34.0,20.389497416484552,0.4755537270545747,0.012096372287986708,10.971533359773622,0.5957345487775946
35.0,20.393107375454598,0.4757188276960657,0.012092500861945885,10.971071557691776,0.5957418909909666
36.0,20.396717277364335,0.4758839548195037,0.01208862948673678,10.970609746640095,0.5957491613142543
37.0,20.400327121665743,0.47604910838420117,0.012084758295080562,10.970147926682749,0.5957563363349153
38.0,20.403936907813364,0.47621428834965895,0.012080887456889854,10.96968609788418,0.595763458755876
39.0,20.407546635261262,0.47637949467530954,0.012077016881921447,10.969224260309236,0.5957705126934556
40.0,20.411156303462974,0.4765447273205476,0.012073145705375325,10.968762414030957,0.595777514080657
41.0,20.41476591187154,0.4767099862447008,0.012069274836980441,10.968300559114327,0.5957844534615028
42.0,20.41837545993948,0.4768752714070473,0.012065404330249692,10.967838695623637,0.5957913261811948
43.0,20.421984947118798,0.4770405827668111,0.012061534185197672,10.96737682362322,0.5957980610114066
44.0,20.425594372860978,0.47720592028315445,0.012057664302104202,10.966914943177287,0.5958046696665614
45.0,20.429203736616977,0.47737128391518663,0.01205379472986715,10.96645305435018,0.595811175758027
46.0,20.432813037837224,0.477536673621966,0.012049925512377008,10.965991157206355,0.5958174964404501
47.0,20.43642227597163,0.47770208936248154,0.012046056334271204,10.965529251808686,0.595823600692826
48.0,20.44003145046957,0.4778675310956846,0.01204218726993208,10.965067338221541,0.595830301682491
49.0,20.44364056077987,0.4780329987804483,0.0120383183712797,10.96460541650681,0.5958372055906044
50.0,20.44724960635085,0.47819849237560624,0.01203444963217364,10.964143486726625,0.5958441609525617
51.0,20.450858586630286,0.4783640118399333,0.012030581202654858,10.963681548945582,0.5958507026376947
52.0,20.45446750106541,0.4785295571321344,0.012026712963631012,10.963219603227733,0.5958566966858699
53.0,20.458076349102924,0.4786951282108778,0.012022845035438774,10.962757649637764,0.595862439852268
54.0,20.46168513018901,0.47886072503475513,0.01201897744178787,10.962295688240527,0.5958680530225683
55.0,20.465293843769278,0.4790263475623182,0.012015110182810833,10.961833719100937,0.595873659509817
56.0,20.46890248928884,0.47919199575204646,0.01201124325861376,10.96137174228396,0.595879377293013
57.0,20.472511066192247,0.4793576695623794,0.01200737666927981,10.96090975785463,0.5958857255165128
58.0,20.476119573923523,0.47952336895168585,0.012003510290119672,10.960447765878863,0.5958920732378434
59.0,20.479728011926145,0.4796890938782817,0.011999644184645449,10.959985766422198,0.5958983267454537
60.0,20.483336379643067,0.47985484430043074,0.01199577841518534,10.959523759549812,0.5959045485361106
61.0,20.486944676516696,0.4800206201763347,0.011991912981892137,10.959061745326936,0.5959106492817902
62.0,20.490552901988906,0.4801864214641422,0.011988047884903954,10.958599723818867,0.5959166518368484
63.0,20.49416105550103,0.4803522481219391,0.011984183124346208,10.958137695090961,0.5959225412603889
64.0,20.49776913649387,0.48051810010776147,0.01198031870033308,10.957675659208633,0.5959284179363971
65.0,20.501377144407673,0.48068397737958607,0.011976454612969017,10.95721361623736,0.5959342417029153
66.0,20.50498507868216,0.48084987989532973,0.011972590862349634,10.956751566242678,0.5959399952066874
67.0,20.508592938756518,0.48101580761285545,0.01196872744856293,10.95628950929019,0.5959456325214113
68.0,20.51220072406938,0.4811817604899664,0.011964864371690028,10.955827445445555,0.5959512222510436
69.0,20.51580843405885,0.48134773848441825,0.011961001631806042,10.955365374774495,0.5959567301372419
70.0,20.519416068162496,0.48151374155389653,0.011957139164660664,10.954903297342826,0.5959620543762416
71.0,20.52302362581734,0.4816797696560415,0.011953276977054794,10.954441213216406,0.595967247018732
72.0,20.52663110645987,0.48184582274842885,0.011949415131354306,10.953979122461128,0.5959723088661549
73.0,20.53023850952603,0.48201190078857975,0.011945553627622818,10.953517025142943,0.5959773247608972
74.0,20.53384583445123,0.4821780037339627,0.011941692465914705,10.95305492132787,0.5959822728664741
75.0,20.537453080670346,0.48234413154198147,0.011937831646275463,10.952592811081988,0.5959871543156579
76.0,20.541060247617693,0.4825102841699933,0.011933971168741937,10.95213069447144,0.5959919863508792
77.0,20.544667334727084,0.4826764615752901,0.011930111033342563,10.951668571562434,0.5959970655174022
78.0,20.548274341431757,0.4828426637151113,0.011926251240097762,10.951206442421237,0.5960020451130622
79.0,20.551881267164443,0.48300889054663704,0.011922391789020088,10.950744307114181,0.5960068681138947
80.0,20.55548811135731,0.48317514202699696,0.011918532641099924,10.950282165708042,0.596011636858925
81.0,20.55909487344199,0.48334141811325465,0.011914673824749937,10.949820018269376,0.596016397847736
82.0,20.562701552849596,0.4835077187624251,0.011910815356275707,10.949357864864654,0.5960210117737516
83.0,20.56630814901069,0.48367404393146596,0.011906957235677442,10.948895705560403,0.5960250869512652
84.0,20.5699146613553,0.48384039357727016,0.011903099462943415,10.948433540423222,0.5960328099485932
85.0,20.5735210893129,0.48400676765668477,0.01189924203805021,10.94797136951977,0.5960398803912285
86.0,20.577127432312444,0.48417316612649586,0.011895384960962858,10.947509192916769,0.5960469611861022
87.0,20.58073368978235,0.4843395889434304,0.011891528229861325,10.947047010681013,0.5960536408144747
88.0,20.584339861150482,0.4845060360641658,0.01188767183511271,10.946584822879387,0.5960593716221514
89.0,20.58794594584418,0.4846725074453148,0.011883815776696902,10.946122629578841,0.596063623492963
90.0,20.591551943290234,0.4848390030434397,0.01187996005319021,10.945660430846404,0.5960706618066436
91.0,20.595157852914916,0.48500552281504533,0.011876104660401279,10.945198226749204,0.5960778709135468
92.0,20.59876367414394,0.48517206671657936,0.011872249594809326,10.94473601735447,0.5960845536915331
93.0,20.602369406402488,0.4853386347044338,0.011868394851351608,10.944273802729555,0.5960912846888147
94.0,20.60597504911522,0.48550522673494223,0.011864540430197705,10.943811582941867,0.5960978228960215
95.0,20.609580601706238,0.48567184276438485,0.011860686331539173,10.943349358058876,0.5961042682703893
96.0,20.613186063599123,0.4858384827489835,0.011856832555589485,10.942887128148111,0.5961104367439549
97.0,20.616791434216907,0.48600514664490563,0.011852979102583738,10.942424893277158,0.5961165093722408
98.0,20.620396712982103,0.4861718344082612,0.011849125972778594,10.941962653513665,0.5961225481909872
99.0,20.62400189931666,0.48633854599510223,0.01184527316645194,10.941500408925338,0.5961283471903319
100.0,20.627606992642022,0.48650528136143306,0.011841420641758138,10.94103815957919,0.5961340058796692
101.0,20.631211992379065,0.4866720404631934,0.01183756843136275,10.94057590554287,0.5961396170053187
102.0,20.634816897948156,0.486838823256266,0.011833716545825032,10.940113646884262,0.5961450660745147
103.0,20.638421708769105,0.48700562969648326,0.011829864985541694,10.939651383671317,0.5961500904164475
104.0,20.642026424261203,0.4871724597396188,0.011826013750928349,10.939189115972036,0.5961550890118584
105.0,20.64563104384318,0.48733931334139236,0.011822162842419194,10.938726843854484,0.5961621086722159
106.0,20.64923556693327,0.4875061904574649,0.011818312260466571,10.938264567386785,0.5961680570823007
107.0,20.652839992949133,0.4876730910434453,0.01181446200554065,10.937802286637119,0.5961736034054376
108.0,20.65644432130791,0.48784001505487834,0.01181061207731154,10.937340001673718,0.5961792853304063
109.0,20.660048551426208,0.48800696244726255,0.01180676247593447,10.936877712564874,0.596184862781389
110.0,20.663652682720098,0.4881739331760371,0.011802913197663549,10.93641541937895,0.5961902677866658
111.0,20.66725671460511,0.4883409271965858,0.011799064204905367,10.935953122184495,0.5961955843966555
112.0,20.67086064649625,0.48850794446423085,0.011795215541784162,10.93549082104997,0.5962008498050806
113.0,20.674464477807973,0.4886749849342468,0.011791367209019734,10.935028516043895,0.5962066376742121
114.0,20.678068207954215,0.4888420485618526,0.011787519207344272,10.934566207234838,0.5962127205622186
115.0,20.681671836348364,0.4890091353022048,0.01178367153750128,10.934103894691432,0.5962195220281897
116.0,20.685275362403296,0.4891762451104107,0.011779824199512188,10.933641578482375,0.5962263518823429
117.0,20.688878785531315,0.48934337794151767,0.01177597718482424,10.93317925867648,0.5962329165073433
118.0,20.692482105144236,0.48951053375051773,0.011772130494335845,10.932716935342624,0.5962393533421453
119.0,20.696085320653303,0.4896777124923523,0.01176828412896745,10.932254608549734,0.5962455580009366
120.0,20.69968843146924,0.48984491412189884,0.011764438089660472,10.931792278366796,0.5962516170069233
121.0,20.703291437002246,0.49001213859399084,0.011760592359178722,10.931329944862801,0.5962575330251926
122.0,20.706894336661964,0.4901793858633985,0.011756746936778908,10.93086760810679,0.5962639101276641
123.0,20.710497129857536,0.4903466558848333,0.01175290184395607,10.930405268167922,0.5962700589816199
124.0,20.714099815997535,0.4905139486129582,0.011749057081736,10.92994292511541,0.5962760728972462
125.0,20.717702394490022,0.4906812640023836,0.011745212651159244,10.929480579018525,0.5962817021129024
126.0,20.721304864742514,0.4908486020076535,0.011741368553280082,10.929018229946593,0.5962867626356736
127.0,20.724907226162017,0.49101596258326446,0.011737524789165127,10.928555877968995,0.5962915056010338
128.0,20.72850947815497,0.49118334568365757,0.011733681359892063,10.928093523155168,0.5962962154910536
129.0,20.732111620127306,0.49135075126321803,0.01172983826654842,10.92763116557461,0.5963015704583673
130.0,20.73571365148441,0.4915181792762712,0.011725995510230252,10.927168805296867,0.5963066795230195
131.0,20.739315571631142,0.4916856296770926,0.011722153092040952,10.926706442391547,0.5963111676600084
132.0,20.74291737997182,0.4918531024199065,0.01171831099065387,10.926244076925038,0.5963152008931771
133.0,20.746519075910243,0.4920205974588714,0.011714469216678644,10.925781708965353,0.596318959834645
134.0,20.750120658849667,0.4921881147480997,0.011710627782822468,10.92531933858228,0.596322597036012
135.0,20.753722128192805,0.4923556542416387,0.01170678669023601,10.924856965845668,0.5963261928165317
136.0,20.757323483341853,0.4925232158934932,0.011702945940071471,10.924394590825417,0.5963303124112304
137.0,20.760924723698473,0.492690799657604,0.01169910553348126,10.923932213591485,0.5963340165487884
138.0,20.76452584866378,0.4928584054878638,0.011695265471617027,10.92346983421389,0.5963367361641759
139.0,20.76812685763839,0.49302603333810596,0.011691425755628159,10.923007452762704,0.5963418899627942
140.0,20.77172775002234,0.49319368316210577,0.011687586386660663,10.922545069308056,0.5963463121344602
141.0,20.775328525215173,0.4933613549135915,0.011683747365855705,10.922082683920133,0.5963505929047074
142.0,20.77892918261587,0.49352904854623,0.011679908694348524,10.921620296669174,0.5963549364188707
143.0,20.78252972162292,0.493696764013635,0.011676070353324835,10.921157907623877,0.5963597263039258
144.0,20.78613014163424,0.4938645012693701,0.011672232336762694,10.920695516852637,0.5963645606391149
145.0,20.789730442047226,0.49403226026693675,0.011668394671379615,10.920233124425836,0.5963697737020479
146.0,20.793330622258736,0.4942000409597856,0.011664557340758943,10.919770730413749,0.59637526304981
147.0,20.796930681665103,0.49436784330131783,0.011660720362300588,10.919308334886852,0.5963804017334254
148.0,20.80053061966214,0.4945356672448664,0.011656883738924406,10.918845937915695,0.5963853690848232
149.0,20.8041304356451,0.4947035127437216,0.011653047471762006,10.918383539570879,0.596391084118499
150.0,20.80773012900872,0.4948713797511144,0.01164921156192936,10.917921139923065,0.5963977363417189
151.0,20.8113296991472,0.49503926822022354,0.011645376010525113,10.917458739042965,0.5964041631680815
152.0,20.81492914545423,0.49520717810416603,0.011641540818628528,10.916996337001352,0.5964101307548092
153.0,20.818528467322913,0.495375109356016,0.011637705978356913,10.916533933868926,0.5964159364729947
154.0,20.822127664145874,0.4955430619287838,0.011633871466165725,10.916071529716005,0.5964215071258924
155.0,20.825726735315197,0.49571103577542863,0.011630037313727687,10.91560912461355,0.5964269935167675
156.0,20.829325680222404,0.4958790308488504,0.011626203522171351,10.915146718632572,0.5964327578548958
157.0,20.83292449825851,0.49604704710190456,0.01162237009259954,10.914684311844143,0.5964385171702071
158.0,20.836523188814,0.4962150844873838,0.011618537026087677,10.914221904319389,0.5964443877037326
159.0,20.840121751278808,0.4963831429580314,0.011614704323681871,10.913759496129492,0.5964503481508895
160.0,20.843720185042343,0.496551222466529,0.011610871986364034,10.913297087345684,0.5964563499174993
161.0,20.847318489493464,0.4967193229655092,0.011607040014605998,10.912834678039255,0.5964625242400433
162.0,20.850916664020506,0.49688744440754923,0.0116032084094256,10.912372268281544,0.5964686278055656
163.0,20.854514708011248,0.4970555867451722,0.01159937717180437,10.91190985814395,0.5964746689837297
164.0,20.858112620852953,0.49722374993084184,0.01159554630268624,10.911447447697928,0.5964808608646796
165.0,20.86171040193237,0.4973919339169745,0.011591715802976094,10.91098503701499,0.5964869833000425
166.0,20.86530805063568,0.4975601386559296,0.011587885673538592,10.910522626166706,0.5964928817001854
167.0,20.868905566348563,0.4977283641000115,0.011584055914397522,10.910060215224703,0.5964983832102039
168.0,20.872502948456145,0.4978966102014681,0.011580226515712697,10.909597804260423,0.5965033888772554
169.0,20.876100196343042,0.49806487691249685,0.011576397462778871,10.909135393344952,0.5965084297397729
170.0,20.879697309393315,0.4982331641852447,0.011572568781265051,10.908672982550105,0.5965137647962186
171.0,20.883294286990516,0.4984014719717931,0.011568740471960983,10.90821057194775,0.5965193388215718
172.0,20.886891128517654,0.49856980022418007,0.011564912535610523,10.907748161609817,0.5965255377704298
173.0,20.890487833357195,0.4987381488943809,0.011561084972910552,10.90728575160829,0.5965318666799853
174.0,20.894084400891092,0.498906517934326,0.01155725778451068,10.906823342015217,0.5965380758852817
175.0,20.897680830500764,0.4990749072958836,0.011553430969167292,10.906360932902702,0.5965442558834568
176.0,20.901277121567084,0.4992433169308668,0.011549604523840594,10.905898524342915,0.5965506575870214
177.0,20.90487327347041,0.49941174679105,0.011545778449068914,10.90543611640808,0.5965569175004205
178.0,20.90846928559056,0.49958019682813154,0.011541952745346787,10.904973709170486,0.5965631313172735
179.0,20.91206515730681,0.4997486669937688,0.01153812741312498,10.904511302702474,0.596569222474756
180.0,20.915660887997916,0.49991715723956576,0.01153430245281039,10.90404889707645,0.5965752300350232
181.0,20.919256477042115,0.5000856675170681,0.01153047786352983,10.903586492364857,0.5965809766674061
182.0,20.922851923817085,0.5002541977777651,0.011526653645438062,10.903124088640203,0.5965862094905154
183.0,20.926447227699974,0.5004227479730988,0.011522829798817975,10.90266168597505,0.5965906233221532
184.0,20.930042388067427,0.5005913180544521,0.011519006323910863,10.902199284442018,0.5965944480572801
185.0,20.933637404295528,0.5007599079731578,0.011515183198052299,10.901736884112632,0.5965995956955327
186.0,20.937232275759833,0.5009285176804891,0.011511360420125976,10.90127448505881,0.5966056016144959
187.0,20.940827001835373,0.5010971471276695,0.011507538011070852,10.90081208735325,0.5966113482353184
188.0,20.944421581896627,0.5012657962658734,0.011503715974718401,10.900349691068824,0.5966173389084911
189.0,20.948016015317567,0.5014344650462103,0.011499894301018942,10.899887296278292,0.5966233498115509
190.0,20.95161030147161,0.5016031534197419,0.011496072929060741,10.899424903054225,0.5966293980295142
191.0,20.95520443973166,0.5017718613374798,0.011492251912277013,10.898962511469481,0.5966361149606062
192.0,20.958798429469887,0.5019405887503601,0.011488431264515543,10.8985001215971,0.5966442709763348
193.0,20.962392270057705,0.5021093356092584,0.01148461098308321,10.89803773351013,0.5966486681146173
