k,PSNR,SSIM,mse,Log-Gradient,Angle
0.0,20.267287877211714,0.46998399460325874,0.0,10.98716179161679,0.5930897036391504
1.0,20.270368522245214,0.4701220392387211,0.010255603282553335,10.986763898611029,0.5954908045846252
2.0,20.27395449127571,0.4702848883173895,0.012087594233050426,10.98630549216769,0.5955111182025984
3.0,20.277563041561244,0.47044896001164926,0.01219596703219534,10.985844402718639,0.5955141382181232
4.0,20.28117334489291,0.4706131608811659,0.012204875354673681,10.98538307712169,0.5955145178438689
5.0,20.2847837503162,0.47077739988202555,0.012203459713736467,10.98492171639083,0.5955192946883362
6.0,20.28839401089432,0.4709416630862672,0.012199993894583611,10.984460353945112,0.5955272211639626
7.0,20.292004074185446,0.47110594738404576,0.012195982163680927,10.98399899779409,0.5955354069906521
8.0,20.295613924541232,0.47127025175221365,0.012191738968192912,10.983537651152611,0.5955406962917879
9.0,20.299223555940515,0.4714345757689629,0.012187405694429628,10.983076315302242,0.5955469565389114
10.0,20.302832965820002,0.47159891924556846,0.012183027152222735,10.98261499091799,0.5955533022910574
11.0,20.306442151790414,0.4717632820256412,0.012178614243285047,10.982153678469867,0.595559937713348
12.0,20.310051112536804,0.47192766400726566,0.012174177627562378,10.981692378305898,0.595566761441356
13.0,20.31365984703601,0.47209206510692847,0.012169728746918376,10.981231090645252,0.595573769229666
14.0,20.31726835449653,0.472256485258455,0.012165271163948268,10.980769815678714,0.5955812272497708
15.0,20.320876634205057,0.47242092440068034,0.012160808045267748,10.980308553533076,0.5955886117046028
16.0,20.324484685471504,0.4725853824807944,0.012156340922311088,10.979847304332779,0.5955959652105391
17.0,20.328092507494944,0.47274985943780634,0.012151868939766374,10.979386068196046,0.595603347956626
18.0,20.331700099667607,0.4729143552243144,0.012147394821399322,10.97892484523009,0.5956107003258254
19.0,20.335307461410466,0.47307886979424807,0.012142921219487183,10.97846363552122,0.595618057486558
20.0,20.33891459215134,0.47324340310158597,0.01213844534378982,10.978002439165836,0.5956253973191258
21.0,20.3425214913196,0.47340795510043526,0.012133967287835785,10.977541256257652,0.5956333707576645
22.0,20.346128158345653,0.47357252574497344,0.012129488797267775,10.977080086882632,0.5956413499023081
23.0,20.349734592660617,0.4737371149894371,0.012125011168881657,10.97661893111577,0.5956493238474213
24.0,20.35334079369604,0.4739017227880907,0.012120534427045176,10.976157789031314,0.5956571904605653
25.0,20.356946760883723,0.47406634909520945,0.012116058340297536,10.975696660701153,0.5956649461734597
26.0,20.36055249365557,0.4742309938650606,0.01211158186107954,10.975235546189987,0.5956726615790803
27.0,20.364157991443477,0.47439565705190273,0.01210710351596137,10.974774445585092,0.5956804531428114
28.0,20.36776325367925,0.47456033860997837,0.012102625685371696,10.974313358960194,0.595688268714323
29.0,20.371368279794574,0.47472503849349607,0.012098148654691778,10.973852286387356,0.5956960728422237
30.0,20.374973069220935,0.4748897566566433,0.012093672428981331,10.9733912279385,0.595703912170735
31.0,20.378577621389628,0.47505449305357256,0.012089197011731981,10.97293018368542,0.5957116895122657
32.0,20.382181935730536,0.4752192476379758,0.012084721995349372,10.972469153700878,0.5957193570347233
33.0,20.385786011674327,0.4753840203638459,0.012080247413270356,10.972008138057143,0.5957269142998797
34.0,20.389389848651792,0.47554881118526166,0.012075773621314694,10.971547136825757,0.5957343380779349
35.0,20.392993446093417,0.4757136200562712,0.012071300311595697,10.971086150075994,0.5957416686589682
36.0,20.396596803423904,0.4758784469304567,0.012066827475085425,10.970625177878874,0.5957489276643078
37.0,20.400199920070335,0.4760432917615707,0.012062355245689228,10.9701642203056,0.5957560908689842
38.0,20.403802795462553,0.4762081545035705,0.012057883793002948,10.969703277427621,0.5957632029257002
39.0,20.407405429030064,0.47637303511037626,0.012053413023995783,10.969242349316799,0.5957702435250868
40.0,20.411007820202048,0.4765379335358522,0.012048942075471386,10.968781436053176,0.5957772336997725
41.0,20.414609968407373,0.47670284973382987,0.012044471861184033,10.968320537708651,0.5957841597527932
42.0,20.418211873074558,0.476867783658105,0.012040002431896018,10.967859654354456,0.5957910230287435
43.0,20.421813533631795,0.4770327352624104,0.012035533787644095,10.967398786061839,0.5957977482243665
44.0,20.42541494950692,0.477197704500449,0.012031065828736002,10.966937932901917,0.5958043491457794
45.0,20.429016120127446,0.4773626913258851,0.01202659860377226,10.966477094945908,0.5958108454057589
46.0,20.43261704492053,0.4775276956923293,0.012022132156974934,10.96601627226513,0.5958171626230441
47.0,20.436217723312986,0.4776927175533518,0.012017666172254662,10.9655554649293,0.5958232642192285
48.0,20.439818154731274,0.47785775686248516,0.012013200724311635,10.965094673009613,0.5958299009031119
49.0,20.44341833860152,0.47802281357320703,0.01200873586590116,10.964633896574773,0.5958367799529583
50.0,20.44701827434949,0.47818788763895764,0.012004271590139089,10.964173135693688,0.5958437219180958
51.0,20.450617961400592,0.47835297901313995,0.011999808047170206,10.963712390437722,0.5958502890119416
52.0,20.454217399179907,0.4785180876491009,0.01199534511801084,10.963251660877676,0.5958562918581525
53.0,20.45781658711213,0.47868321350015286,0.011990882923181836,10.962790947084963,0.5958620362394235
54.0,20.461415524621643,0.47884835651955876,0.011986421486491892,10.962330249131146,0.5958676329747057
55.0,20.46501421113244,0.47901351666054287,0.01198196080809815,10.96186956708783,0.5958732303059232
56.0,20.46861264606821,0.47917869387628237,0.011977500888131584,10.96140890102665,0.5958788800568237
57.0,20.472210828852226,0.4793438881199094,0.011973041726700263,10.96094825101929,0.595885197417879
58.0,20.47580875890747,0.47950909934452096,0.011968583197480608,10.960487617138316,0.5958915327362707
59.0,20.479406435656546,0.47967432750315636,0.01196412536697333,10.960026999455863,0.5958977734126861
60.0,20.483003858521712,0.47983957254882564,0.011959668296229,10.959566398043702,0.5959039769407891
61.0,20.486601026924873,0.480004834434485,0.011955211985426149,10.95910581297364,0.5959100772060346
62.0,20.490197940287594,0.4801701131130543,0.01195075643472872,10.958645244317527,0.595916069895656
63.0,20.493794598031087,0.48033540853740675,0.011946301644288242,10.958184692147249,0.5959219413886135
64.0,20.497390999576183,0.4805007206603665,0.011941847614245193,10.957724156534741,0.5959278097583723
65.0,20.500987144343416,0.48066604943472574,0.011937394344730337,10.957263637551971,0.5959336078008269
66.0,20.504583031752933,0.4808313948132235,0.011932941835865993,10.956803135270956,0.595939360415937
67.0,20.508178661224537,0.4809967567485635,0.011928490087766941,10.956342649763746,0.5959449868355327
68.0,20.511774032177698,0.48116213519339873,0.011924039100541402,10.95588218110244,0.5959505595194491
69.0,20.515369144031514,0.4813275301003421,0.011919588874291547,10.955421729359175,0.5959560664893839
70.0,20.51896399620475,0.48149294142196664,0.011915139338499635,10.954961294606164,0.595961394183579
71.0,20.522558588115825,0.4816583691107963,0.011910690512113622,10.954500876915642,0.5959665802070611
72.0,20.526152919182792,0.48182381311931394,0.011906242451706808,10.95404047635985,0.5959716457951031
73.0,20.529746988823376,0.48198927339996384,0.011901795157371095,10.953580093011084,0.5959766430124683
74.0,20.533340796454944,0.48215474990513796,0.011897348629189338,10.953119726941669,0.5959815806162155
75.0,20.536934341494515,0.48232024258719647,0.011892902867235693,10.952659378223983,0.5959864530697545
76.0,20.540527623358766,0.4824857513984518,0.011888457871575846,10.952199046930444,0.5959912531686794
77.0,20.544120641464033,0.4826512762911667,0.0118840136422674,10.95173873313351,0.5959962912127115
78.0,20.547713395226303,0.48281681721757336,0.011879570179360165,10.951278436905689,0.5960012856427578
79.0,20.55130588406119,0.48298237412985223,0.01187512748289624,10.950818158319525,0.5960060931961726
80.0,20.554898107384023,0.48314794698014474,0.01187068550003867,10.950357897448114,0.5960108373147308
81.0,20.558490064609735,0.48331353572054847,0.011866244286328398,10.949897654364063,0.5960156164754252
82.0,20.562081755152924,0.4834791403031203,0.011861803844855993,10.949437429139994,0.5960202183622575
83.0,20.565673178427872,0.48364476067987,0.011857364175652127,10.948977221848567,0.5960235830681655
84.0,20.569264333848484,0.48381039680277405,0.011852925278735793,10.948517032562492,0.5960315121773754
85.0,20.572855220828338,0.48397604862375326,0.011848487154114611,10.948056861354516,0.5960385632221054
86.0,20.576445838780675,0.4841417160947025,0.01184404980178475,10.947596708297436,0.596045631732558
87.0,20.580036187118374,0.4843073991674572,0.011839613221567985,10.947136573464084,0.596052387343904
88.0,20.583626265253997,0.4844730977938214,0.01183517740228324,10.946676456927381,0.5960583219881818
89.0,20.587216072599745,0.4846388119255562,0.011830742343941792,10.94621635876028,0.5960629045417101
90.0,20.59080560856749,0.4848045415143756,0.011826308045860505,10.945756279035791,0.5960691474939466
91.0,20.59439487256876,0.48497028651195934,0.011821874503182471,10.945296217827007,0.5960763628520314
92.0,20.597983864014733,0.48513604686993456,0.011817441713852397,10.94483617520709,0.5960831043306904
93.0,20.601572582316265,0.48530182253989823,0.011813009671415083,10.944376151249315,0.5960897725772808
94.0,20.605161026883874,0.4854676134733948,0.011808578376069774,10.943916146026993,0.5960963577222891
95.0,20.608749197127715,0.485633419621935,0.011804147828037775,10.943456159613474,0.5961027746993232
96.0,20.612337092457626,0.4857992409369813,0.011799718027562486,10.942996192082152,0.5961089930454316
97.0,20.615924712283118,0.4859650773699606,0.011795288974909057,10.942536243506451,0.596115017315351
98.0,20.619512056013335,0.48613092887225423,0.011790860670364217,10.942076313959838,0.5961210831584697
99.0,20.623099123057102,0.48629679539520115,0.01178643311423613,10.941616403515816,0.5961268947753459
100.0,20.626685912822907,0.48646267689010264,0.01178200626578044,10.941156512247199,0.596132542232246
101.0,20.6302724247189,0.48662857330821846,0.011777580155349153,10.940696640227365,0.5961381365119429
102.0,20.633858658152896,0.48679448460076147,0.011773154794808047,10.940236787529939,0.596143611729854
103.0,20.637444612532377,0.4869604107189091,0.01176873018458462,10.939776954228577,0.5961488033031297
104.0,20.641030287264478,0.48712635161379375,0.011764306325125413,10.939317140396977,0.5961530352355405
105.0,20.644615681756015,0.4872923072365089,0.011759883216895755,10.938857346108872,0.596160241902674
106.0,20.648200795413455,0.48745827753810395,0.011755460860379189,10.938397571438033,0.5961663940371414
107.0,20.65178562764296,0.48762426246959384,0.011751039256077138,10.937937816458264,0.5961719419409737
108.0,20.65537017785033,0.48779026198194614,0.011746618403925935,10.937478081243409,0.5961775918819404
109.0,20.658954445441047,0.48795627602608754,0.011742198303860937,10.93701836586734,0.5961831377801076
110.0,20.662538429820266,0.4881223045529079,0.01173777895353421,10.93655867040398,0.5961886066836758
111.0,20.666122130392786,0.4882883475132532,0.01173336031247027,10.936098994927418,0.5961938935253077
112.0,20.669705546563115,0.4884544048579292,0.01172894242637463,10.935639339511638,0.5961990985969369
113.0,20.6732886777354,0.4886204765377018,0.011724525295998682,10.93517970423065,0.5962047104385491
114.0,20.67687152331346,0.48878656250329616,0.01172010892210629,10.934720089158505,0.5962104480936895
115.0,20.6804540827008,0.4889526627053939,0.011715693305472964,10.934260494369285,0.5962171688448655
116.0,20.684036355300584,0.4891187770946454,0.011711278446885076,10.933800919937113,0.5962240011484639
117.0,20.687618340515655,0.4892849056216475,0.011706864339106168,10.933341365936197,0.5962305979828718
118.0,20.691200037748523,0.489451048236964,0.01170245098107197,10.9328818324408,0.5962370666557236
119.0,20.694781446401368,0.4896172048911224,0.01169803837373274,10.932422319525218,0.5962433072081614
120.0,20.69836256587606,0.48978337553459883,0.011693626518059939,10.931962827263778,0.5962493729195627
121.0,20.701943395574112,0.48994956011784113,0.011689215398574556,10.931503355730793,0.5962553004172739
122.0,20.705523934896743,0.4901157585912476,0.011684805010974839,10.931043905000601,0.5962614661596014
123.0,20.709104183244825,0.4902819709051818,0.011680395378652796,10.930584475147636,0.5962676424448506
124.0,20.71268414001892,0.4904481970099673,0.011675986502664876,10.930125066246365,0.5962736940996225
125.0,20.716263804619246,0.49061443685587985,0.01167157838408265,10.92966567837129,0.596279485775339
126.0,20.71984317644571,0.4907806903931721,0.01166717102399148,10.929206311596946,0.5962847243347231
127.0,20.723422254897898,0.4909469575720373,0.011662764423489236,10.928746965997902,0.5962895300350225
128.0,20.72700103937506,0.49111323834264864,0.011658358583685172,10.928287641648764,0.5962941773176199
129.0,20.73057952927614,0.4912795326551196,0.01165395350569852,10.927828338624163,0.5962991955333098
130.0,20.73415772399974,0.4914458404595378,0.011649549190657315,10.92736905699877,0.5963044819191746
131.0,20.737735622944157,0.4916121617059499,0.011645145639697095,10.92690979684729,0.5963092208079074
132.0,20.741313225507344,0.49177849634435306,0.011640742838150265,10.926450558242184,0.596313399115754
133.0,20.744890531086963,0.49194484432472296,0.011636340783220992,10.925991341255534,0.5963172180214762
134.0,20.748467539080323,0.4921112055969745,0.011631939494464245,10.925532145962162,0.5963208909998964
135.0,20.75204424888443,0.49227758011100303,0.011627538973064096,10.925072972436919,0.5963244523674517
136.0,20.755620659895968,0.4924439678166516,0.011623139220206257,10.92461382075469,0.5963282241071978
137.0,20.759196771511284,0.49261036866373203,0.011618740237076935,10.9241546909904,0.5963324280579809
138.0,20.762772583126434,0.49277678260201113,0.011614342024861843,10.923695583219002,0.5963336706374213
139.0,20.766348094137136,0.49294320958121546,0.011609944584744665,10.923236497515482,0.5963395430580298
140.0,20.76992330393879,0.49310964955104225,0.011605547917905976,10.922777433954865,0.5963440444209207
141.0,20.773498211926487,0.4932761024611405,0.011601152025521807,10.922318392612203,0.5963483539782553
142.0,20.777072817494997,0.49344256826112565,0.011596756908762511,10.921859373562585,0.5963525945040106
143.0,20.78064712003876,0.4936090469005707,0.011592362560440779,10.921400376880415,0.5963570956533911
144.0,20.78422111895192,0.4937755383290088,0.011587968951507151,10.920941402638029,0.596361974985894
145.0,20.787794813628278,0.4939420424959415,0.011583576120182943,10.920482450910589,0.5963667312328415
146.0,20.79136820346133,0.49410855935082587,0.011579184052758264,10.920023521773151,0.5963722329143506
147.0,20.794941287844267,0.4942750888430825,0.01157479276127307,10.919564615300903,0.59637757366326
148.0,20.798514066169936,0.4944416309220938,0.011570402251409729,10.9191057315691,0.596382574034931
149.0,20.802086537830892,0.49460818553719466,0.011566012524335865,10.918646870653031,0.5963873434235715
150.0,20.805658702219368,0.4947747526377022,0.011561623581204024,10.918188032628018,0.5963938761285162
151.0,20.809230558727275,0.49494133217287445,0.011557235423149797,10.917729217569413,0.5964003584015092
152.0,20.812802106746222,0.4951079240919394,0.011552848051289965,10.917270425552603,0.5964065882127755
153.0,20.816373345667486,0.4952745283440902,0.011548461466463957,10.916811656653007,0.5964124135263076
154.0,20.81994427488206,0.4954411448784757,0.011544075633638151,10.91635291094546,0.5964180857448609
155.0,20.823514893780587,0.49560777364421077,0.011539690582923427,10.915894188505382,0.5964235442928436
156.0,20.827085201753427,0.4957744145903664,0.011535306319893503,10.915435489408312,0.5964291018025433
157.0,20.830655198190605,0.4959410676659856,0.011530922845688643,10.914976813729817,0.5964347967426256
158.0,20.834224882481852,0.4961077328200645,0.011526540161422174,10.9145181615455,0.5964405393040936
159.0,20.837794254016572,0.4962744100015663,0.011522158268178753,10.914059532930992,0.5964463875968463
160.0,20.84136331218386,0.49644109915941015,0.011517777167012806,10.913600927961953,0.5964523230944303
161.0,20.8449320563725,0.4966078002424861,0.011513396858774427,10.913142346714082,0.5964583008358205
162.0,20.848500485970938,0.49677451319963667,0.01150901734411993,10.912683789263095,0.5964644296404573
163.0,20.852068600367318,0.4969412379796747,0.011504638624071004,10.912225255684751,0.596470449588428
164.0,20.85563639894948,0.49710797453137,0.011500260699612424,10.911766746054832,0.5964764552323737
165.0,20.859203881104925,0.49727472280345536,0.011495883571690565,10.91130826044916,0.5964825686522275
166.0,20.862771046220892,0.49744148274462563,0.011491507241212104,10.910849798943588,0.5964886026125216
167.0,20.866337893684275,0.4976082543035422,0.011487131708706733,10.910391361614,0.596494365988397
168.0,20.86990442288167,0.4977750374288254,0.011482756974151223,10.909932948536323,0.5964996742446246
169.0,20.873470633199368,0.49794183206906234,0.011478383009017176,10.90947455978576,0.5965046115610543
170.0,20.877036524023346,0.49810863817279216,0.011474009836941454,10.909016195438165,0.5965096219012118
171.0,20.880602094739285,0.498275455688532,0.011469637464422004,10.908557855569569,0.5965149898893953
172.0,20.884167344732532,0.4984422845647483,0.011465265892246739,10.908099540256037,0.5965205253334425
173.0,20.88773227338816,0.49860912474987834,0.011460895121157338,10.907641249573674,0.5965268382069187
174.0,20.891296880090913,0.4987759761923214,0.011456525151848678,10.907182983598613,0.5965330626939164
175.0,20.894861164225237,0.4989428388404337,0.011452155984968378,10.90672474240702,0.5965391930987971
176.0,20.89842512517526,0.4991097126425416,0.011447787617929644,10.906266526075106,0.5965453925098361
177.0,20.90198876232483,0.4992765975469334,0.01144342004909089,10.905808334679113,0.5965516931146694
178.0,20.90555207505746,0.49944349350185524,0.011439053278990648,10.90535016829532,0.5965578923623599
179.0,20.90911506275638,0.49961040045551935,0.011434687308124131,10.904892027000034,0.5965640171123683
180.0,20.9126777248045,0.4997773183561042,0.011430322136943115,10.904433910869606,0.5965700270122781
181.0,20.916240060584435,0.4999442471517506,0.011425957765436619,10.90397581998041,0.5965759646922363
182.0,20.919802069478482,0.5001111867905536,0.011421594192993012,10.90351775440884,0.5965816102601417
183.0,20.923363750868656,0.5002781372205863,0.011417231419940579,10.903059714231333,0.5965867133703774
184.0,20.926925104136643,0.5004450983898735,0.011412869446566118,10.902601699524352,0.5965910119559192
185.0,20.930486128663844,0.5006120702464049,0.011408508258562986,10.902143710363669,0.5965947057497188
186.0,20.93404682383134,0.5007790527381432,0.01140414785310445,10.901685746825068,0.5966000007076335
187.0,20.937607189019932,0.5009460458130032,0.011399788229486152,10.901227808984526,0.5966059631217787
188.0,20.941167223610083,0.5011130494188669,0.0113954294067218,10.90076989691866,0.5966116197525877
189.0,20.94472692698198,0.5012800635035805,0.011391071384934559,10.900312010704127,0.5966175586780583
190.0,20.948286298515498,0.5014470880149564,0.011386714124776693,10.899854150417177,0.5966234733380307
191.0,20.95184533759022,0.5016141229007689,0.011382357611747695,10.899396316134247,0.5966299334632735
192.0,20.95540404358527,0.5017811681087406,0.011378001893204377,10.898938507931993,0.5966366067080139
193.0,20.9589624158792,0.5019482235865542,0.01137364696971296,10.898480725887081,0.5966446797857856
