k,PSNR,SSIM,mse,Log-Gradient,Angle
0.0,20.267287877211714,0.46998399460325874,0.0,10.98716179161679,0.5930897036391504
1.0,20.270368170273155,0.4701220234655464,0.010254431682246863,10.98676394407339,0.5954908037383954
2.0,20.27395337759295,0.47028483815625527,0.0120850570024163,10.986305635479233,0.5955111165012111
3.0,20.277560753805126,0.4704488566989537,0.012192042120343959,10.985844696585643,0.5955141326594432
4.0,20.281169470477337,0.47061298563057613,0.012199559103902843,10.985383574287278,0.5955145068459872
5.0,20.28477787661776,0.47077713389476156,0.01219675223508289,10.98492246961216,0.5955192826611811
6.0,20.28838572528028,0.47094128755268255,0.012191896030453422,10.984461415989518,0.5955272027264944
7.0,20.291992964020046,0.4711054434840271,0.01218649496687381,10.984000421438097,0.5955353796487312
8.0,20.295599577187726,0.4712696006552948,0.01218086355293608,10.983539489181526,0.5955406632585695
9.0,20.29920555876231,0.4714337586344301,0.012175143210557543,10.983078620509923,0.5955469163807574
10.0,20.30281090618127,0.47159791722248673,0.012169378761615213,10.982617816106744,0.5955532533845518
11.0,20.30641561705671,0.4717620762529142,0.012163581111868714,10.982157076450342,0.5955598802951253
12.0,20.310019690075688,0.47192623561367136,0.012157760926336069,10.98169640189698,0.595566692797251
13.0,20.313623124217468,0.47209039521115237,0.012151929652162193,10.98123579267401,0.595573692170207
14.0,20.317225918693463,0.47225455496912655,0.012146090853876,10.98077524898032,0.5955811388981223
15.0,20.320828072793745,0.4724187148164212,0.012140247698801322,10.980314770950754,0.5955885099710768
16.0,20.324429585831993,0.47258287469022164,0.012134401718505267,10.979854358717752,0.5955958489582974
17.0,20.328030457011593,0.47274703451960304,0.012128552058440847,10.979394012407466,0.5956032154934144
18.0,20.331630685729465,0.4729111942472349,0.012122701443267034,10.978933732135005,0.595610551560476
19.0,20.33523027141176,0.473075353817171,0.012116852528144102,10.978473517994495,0.5956178946836209
20.0,20.3388292134919,0.4732395131735288,0.012111002518408732,10.978013370090125,0.5956252157725853
21.0,20.34242751140529,0.4734036722605999,0.01210515150832674,10.977553288523323,0.5956331915561516
22.0,20.346025164588802,0.47356783102277694,0.012099301246177542,10.977093273387718,0.5956411523335833
23.0,20.34962217248047,0.47373198940454736,0.012093453028852244,10.976633324765922,0.5956491074161055
24.0,20.35321853451918,0.47389614735045366,0.012087606880521472,10.976173442739748,0.5956569553929358
25.0,20.356814250144527,0.47406030480507916,0.012081762569049697,10.975713627388604,0.5956646910800596
26.0,20.360409318796655,0.4742244617130444,0.012075919042218814,10.975253878784669,0.5956723841526743
27.0,20.364003739916114,0.47438861801898713,0.012070074829360272,10.97479419702263,0.5956801455904032
28.0,20.367597512943824,0.4745527736675563,0.01206423231305306,10.974334582183564,0.5956879345880597
29.0,20.37119063732102,0.47471692860341635,0.012058391778023422,10.97387503434685,0.5956957137298394
30.0,20.37478311248919,0.4748810827712286,0.012052553229115772,10.973415553591662,0.5957035292016245
31.0,20.37837493789005,0.47504523611566324,0.012046716669605342,10.972956139997011,0.5957112808469227
32.0,20.381966112964356,0.47520938858095757,0.012040881690364732,10.972496793642811,0.5957189257298652
33.0,20.385556637154107,0.4753735401116838,0.012035048325589444,10.97203751460844,0.5957264583403356
34.0,20.389146509901856,0.4755376906525411,0.012029216931045326,10.971578302972492,0.5957338607545752
35.0,20.392735730650276,0.47570184014821554,0.012023387198229707,10.971119158811247,0.5957411654605806
36.0,20.396324298836713,0.47586598854297896,0.01201755911658398,10.970660082202674,0.5957483990083204
37.0,20.39991221390137,0.476030135781299,0.012011732822430742,10.970201073224878,0.5957555385912039
38.0,20.403499475287617,0.4761942818078806,0.012005908484375325,10.969742131956163,0.5957626233909411
39.0,20.40708608243895,0.4763584265674279,0.012000086002792544,10.96928325847521,0.5957696352960257
40.0,20.410672034798992,0.476522570004627,0.01199426451785203,10.968824452868878,0.5957766002639299
41.0,20.41425733181147,0.47668671206416097,0.011988444952167499,10.968365715215675,0.5957834944285539
42.0,20.41784197292024,0.47685085269070093,0.011982627349990104,10.967907045593474,0.5957903357882153
43.0,20.421425957569262,0.47701499182891455,0.011976811711135254,10.967448444080118,0.5957970398854223
44.0,20.425009285202602,0.4771791294234526,0.011970997935703347,10.966989910753256,0.5958036218333985
45.0,20.428591955264427,0.4773432654189654,0.011965186071344752,10.966531445690599,0.5958100961927433
46.0,20.432173967199006,0.47750739976008766,0.011959376162763819,10.966073048969895,0.5958164048941182
47.0,20.43575532045075,0.4776715323914536,0.011953567891946806,10.965614720667245,0.5958224997801582
48.0,20.43933601446411,0.4778356632576734,0.011947761334045239,10.965156460860175,0.5958289960526363
49.0,20.442916048683685,0.4779997923033661,0.01194195654344112,10.964698269623696,0.5958358192472735
50.0,20.44649542255415,0.4781639194731249,0.011936153511285208,10.96424014703292,0.5958427232062714
51.0,20.45007413552029,0.4783280447115497,0.011930352387685268,10.963782093165388,0.5958493435147492
52.0,20.453652187026993,0.4784921679632168,0.011924553053631541,10.96332410809802,0.5958553697175154
53.0,20.45722957651924,0.4786562891727028,0.011918755629792275,10.962866191908299,0.595861120612433
54.0,20.460806303442123,0.4788204082845744,0.011912960139927285,10.962408344673808,0.5958666912654412
55.0,20.464382367240823,0.4789845252433856,0.011907166583976565,10.961950566472114,0.5958722565307984
56.0,20.46795776736063,0.4791486399936844,0.011901374961854099,10.961492857380769,0.59587783352663
57.0,20.47153250324694,0.47931275248001187,0.011895585273451416,10.961035217477315,0.5958840048354916
58.0,20.475106574345247,0.47947686264689554,0.011889797388456306,10.960577646840145,0.595890306914879
59.0,20.47867998010115,0.4796409704388602,0.011884011379890242,10.96012014554713,0.5958965230284187
60.0,20.48225271996035,0.4798050758004107,0.011878227305625244,10.95966271367574,0.5959026843029459
61.0,20.485824793368653,0.47996917867606226,0.011872445165624313,10.959205351303432,0.5959087798810174
62.0,20.48939619977199,0.480133279010307,0.01186666495983637,10.95874805850765,0.5959147487360221
63.0,20.492966938616362,0.4802973767476327,0.011860886688198062,10.958290835365824,0.595920598532813
64.0,20.49653700934791,0.480461471832519,0.01185511035063533,10.957833681955373,0.5959264275148046
65.0,20.500106411412872,0.4806255642094385,0.011849335947064818,10.957376598353706,0.5959321748075622
66.0,20.503675144257578,0.48078965382285715,0.011843563477394875,10.956919584638218,0.5959379188728994
67.0,20.507243207328475,0.4809537406172297,0.011837792941526743,10.956462640886292,0.595943529648007
68.0,20.51081060007214,0.48111782453700336,0.011832024339355285,10.956005767175299,0.5959490650614564
69.0,20.514377321935232,0.4812819055266246,0.011826257670769825,10.955548963582595,0.595954557846189
70.0,20.51794337236453,0.481445983530518,0.01182049285072184,10.955092230185576,0.5959598974752086
71.0,20.52150875080693,0.4816100584931177,0.011814729925515539,10.95463556706158,0.5959650723548761
72.0,20.525073456709436,0.4817741303588406,0.0118089689382714,10.954178974287913,0.5959701401830717
73.0,20.528637489519163,0.4819381990720955,0.01180320988887019,10.953722451941873,0.5959750979263015
74.0,20.532200848683352,0.4821022645772868,0.011797452777184109,10.953266000100742,0.5959800009159961
75.0,20.535763533649323,0.48226632681881393,0.011791697603076886,10.952809618841796,0.5959848673030326
76.0,20.539325543864564,0.4824303857410681,0.011785944366404285,10.952353308242296,0.595989650696868
77.0,20.542886878776642,0.48259444128843043,0.011780193067014352,10.951897068379497,0.5959945271798339
78.0,20.546447537833252,0.48275849340527804,0.01177444370474755,10.951440899330635,0.5959995472363816
79.0,20.550007520482207,0.48292254203598306,0.011768696252425714,10.9509848011732,0.5960043607350429
80.0,20.55356682617144,0.48308658712490676,0.011762950706594524,10.9505287739847,0.596009096015167
81.0,20.557125454349002,0.4832506286164089,0.011757207103046176,10.950072817842285,0.5960138208599255
82.0,20.560683404463056,0.48341466645483827,0.011751465441615405,10.949616932823096,0.5960184194414072
83.0,20.564240675961905,0.4835787005845443,0.011745725722125646,10.949161119004259,0.5960232013031934
84.0,20.56779726829397,0.48374273094985876,0.011739987944389007,10.948705376462893,0.5960285425244881
85.0,20.57135318090777,0.48390675749511924,0.011734252108206625,10.948249705276107,0.596035591540584
86.0,20.57490841325198,0.48407078016465316,0.011728518213368695,10.947794105520993,0.5960425879804377
87.0,20.578462964775383,0.48423479890277954,0.011722786259654606,10.947338577274635,0.5960494618010913
88.0,20.582016834926886,0.48439881365381304,0.011717056239068196,10.946883120614132,0.5960557948386702
89.0,20.585570023155533,0.48456282436206993,0.011711328147931445,10.946427735616574,0.5960609969588375
90.0,20.589122528910487,0.4847268309718464,0.011705601986049878,10.945972422359048,0.5960654263491035
91.0,20.592674351641037,0.4848908334274504,0.011699877748610824,10.945517180918666,0.5960728188197862
92.0,20.596225490796606,0.48505483167317215,0.011694155434529974,10.945062011372537,0.5960798329987681
93.0,20.599775945826735,0.4852188256532974,0.011688435036234377,10.94460691379784,0.5960863536331836
94.0,20.603325716181118,0.48538281531211386,0.011682716552553502,10.944151888271747,0.5960930027208494
95.0,20.60687480130957,0.4855468005939003,0.011676999983498144,10.94369693487142,0.5960993767507037
96.0,20.61042320066203,0.4857107814429322,0.011671285329101303,10.943242053673998,0.596105695825985
97.0,20.613970913688576,0.48587475780347944,0.011665572589417831,10.942787244756605,0.5961116983041873
98.0,20.617517939839427,0.4860387296198039,0.011659861764524361,10.942332508196348,0.5961176995562154
99.0,20.621064278564923,0.48620269683616996,0.011654152854519066,10.941877844070316,0.5961235826290955
100.0,20.624609929315554,0.4863666593968326,0.01164844582089323,10.941423252454902,0.5961292514485789
101.0,20.62815489154194,0.48653061724604657,0.011642740688436536,10.940968733426912,0.5961348049103244
102.0,20.63169916469483,0.48669457032806,0.011637037471718301,10.940514287063388,0.5961403203171162
103.0,20.63524274822512,0.48685851858711526,0.011631336170956776,10.940059913441353,0.5961456504281887
104.0,20.638785641583844,0.4870224619674508,0.011625636786389391,10.939605612637807,0.5961505200877194
105.0,20.642327844222173,0.4871864004133087,0.011619939318272368,10.939151384729739,0.5961556066254163
106.0,20.64586935559142,0.4873503338689181,0.011614243766880415,10.938697229794112,0.5961624438087538
107.0,20.649410175143046,0.48751426227851086,0.0116085501325062,10.938243147907876,0.5961682634466396
108.0,20.652950302328648,0.48767818558630865,0.01160285841542275,10.937789139147958,0.5961737089629436
109.0,20.656489736599966,0.4878421037365406,0.011597168614774054,10.93733520359126,0.5961792859075091
110.0,20.66002847740888,0.4880060166734226,0.01159148073102225,10.936881341314663,0.5961847563941288
111.0,20.663566524207436,0.4881699243411701,0.011585794717109622,10.93642755239519,0.5961900728579671
112.0,20.66710387644779,0.4883338266839981,0.011580110621815763,10.935973836909676,0.5961952857383016
113.0,20.67064053358228,0.4884977236461217,0.011574428445760416,10.93552019493494,0.5962004391799788
114.0,20.67417649506337,0.488661615171742,0.01156874818949859,10.935066626547778,0.5962060832428544
115.0,20.67771176034369,0.4888255012050673,0.011563069853597141,10.934613131824966,0.5962119289969058
116.0,20.681246328875993,0.488989381690298,0.011557393438634107,10.934159710843256,0.5962185837270686
117.0,20.68478020011321,0.4891532565716404,0.011551718943387322,10.933706363679399,0.5962253086058023
118.0,20.688313373508404,0.48931712579328807,0.011546046360412326,10.93325309041017,0.5962317697130975
119.0,20.691845848514806,0.4894809892994341,0.01154037569044543,10.932799891112335,0.5962381294625605
120.0,20.69537762458577,0.48964484703427696,0.01153470693424432,10.932346765862627,0.5962442505583391
121.0,20.698908701174847,0.48980869894200946,0.01152904008001999,10.931893714737726,0.5962502063822807
122.0,20.70243907773571,0.489972544966817,0.01152337511514119,10.931440737814246,0.5962560317454044
123.0,20.705968753722196,0.49013638505289,0.011517712067010242,10.93098783516886,0.5962621478684459
124.0,20.709497728588296,0.4903002191444168,0.011512050936470916,10.93053500687822,0.5962682083693294
125.0,20.713026001788162,0.49046404718557923,0.011506391724382314,10.930082253018949,0.596274159119976
126.0,20.716553572776096,0.4906278691205636,0.011500734431617669,10.92962957366765,0.5962798367368717
127.0,20.720080441006576,0.49079168489355124,0.011495079059062985,10.929176968900903,0.5962849637561773
128.0,20.723606605934215,0.49095549444872094,0.01148942560761595,10.92872443879526,0.596289680647922
129.0,20.7271320670138,0.4911192977302547,0.011483774078184588,10.928271983427258,0.5962942453963836
130.0,20.73065682370029,0.4912830946823317,0.011478124471685981,10.927819602873404,0.5962991774473295
131.0,20.73418087544877,0.4914468852491311,0.011472476789045177,10.927367297210179,0.5963043816732904
132.0,20.737704221714534,0.4916106693748284,0.0114668310309854,10.926915066514015,0.5963090573928486
133.0,20.741226861952992,0.4917744470036019,0.011461187162878878,10.92646291085646,0.5963131820792643
134.0,20.74474879561975,0.4919382180796276,0.011455545220100036,10.92601083031394,0.5963169514718968
135.0,20.748270022170555,0.49210198254707765,0.011449905203624433,10.925558824962863,0.5963205704446692
136.0,20.751790541061332,0.49226574035013276,0.01144426711442962,10.925106894879612,0.5963240713948784
137.0,20.755310351748186,0.4924294914329647,0.011438630953493973,10.924655040140543,0.5963276716281372
138.0,20.75882945368736,0.49259323573975156,0.011432996721795704,10.92420326082199,0.5963296670204901
139.0,20.762347846335274,0.49275697321466155,0.011427364420311496,10.923751557000264,0.5963337350756187
140.0,20.765865529148524,0.4929207038018753,0.011421734050015389,10.923299928751652,0.5963387500988812
141.0,20.769382501583877,0.49308442744556996,0.011416105611877307,10.922848376152412,0.5963432206054274
142.0,20.772898763098254,0.4932481440899153,0.011410479106861883,10.922396899278787,0.5963474528788355
143.0,20.776414313148766,0.4934118536790922,0.011404854535927256,10.921945498206986,0.5963516101376761
144.0,20.77992915119269,0.49357555615727094,0.011399231871494449,10.921494173010963,0.5963560005580596
145.0,20.78344327668745,0.4937392514686345,0.011393611123452699,10.921042923765608,0.596360809789291
146.0,20.78695668909067,0.49390293955735737,0.011387992302021744,10.920591750546958,0.596365488826106
147.0,20.790469387860142,0.49406662036762033,0.01138237540683463,10.920140653431003,0.5963707277536873
148.0,20.79398137245381,0.4942302938435989,0.011376760449536142,10.919689632493803,0.5963760506343464
149.0,20.79749264232983,0.4943939599294773,0.011371147431089147,10.919238687811394,0.5963810028651502
150.0,20.801003196946493,0.49455761856943775,0.011365536352442366,10.91878781945978,0.5963858512740108
151.0,20.80451303576229,0.4947212697076509,0.011359927214528316,10.918337027514946,0.5963914747879451
152.0,20.808022158235893,0.4948849132883166,0.011354320018261678,10.917886312052847,0.5963979443521732
153.0,20.81153056382614,0.4950485492556127,0.011348714764537379,10.91743567314941,0.5964042408588149
154.0,20.815038251992043,0.49521217755372454,0.011343111446982497,10.916985110880404,0.5964100671302234
155.0,20.818545222192796,0.49537579812684235,0.011337510040261319,10.916534625321148,0.596415728611712
156.0,20.822051473887797,0.4955394109191558,0.011331910575797886,10.916084216547514,0.5964211717158492
157.0,20.825557006536574,0.4957030158748557,0.011326313054529169,10.915633884635348,0.5964265019924243
158.0,20.829061819598888,0.4958666129381351,0.01132071747736639,10.915183629660469,0.5964320861907318
159.0,20.832565912534648,0.4960302020531914,0.011315123845193127,10.914733451698671,0.5964376612812412
160.0,20.836069284803955,0.4961937831642203,0.01130953215886379,10.914283350825722,0.5964433390967864
161.0,20.83957193586709,0.4963573562154216,0.011303942419202118,10.913833327117356,0.5964491154064134
162.0,20.84307386518452,0.4965209211509995,0.011298354626999588,10.913383380649286,0.5964549326669996
163.0,20.84657507221689,0.49668447791515047,0.01129276878274057,10.912933511497192,0.5964608617588688
164.0,20.85007555642501,0.4968480264520883,0.011287184886981527,10.912483719736729,0.596466817973551
165.0,20.853575317269875,0.4970115667060147,0.01128160294047316,10.912034005443521,0.5964726855057063
166.0,20.857074354212678,0.49717509862114123,0.011276022943927875,10.91158436869317,0.5964785766129691
167.0,20.860572666714784,0.4973386221416882,0.011270444897750148,10.911134809561247,0.5964845585460327
168.0,20.864070254237784,0.4975021372118605,0.011264868802322461,10.910685328123305,0.5964904027536414
169.0,20.867567116243407,0.4976656437758813,0.0112592946582514,10.910235924454868,0.5964959467023113
170.0,20.871063252193597,0.4978291417779763,0.011253722437362886,10.909786598630713,0.596500986068915
171.0,20.874558661550495,0.49799263116236975,0.011248152161585558,10.909337350726169,0.5965057928143845
172.0,20.87805334377641,0.49815611187328307,0.011242583837432691,10.908888180816696,0.5965107221214746
173.0,20.88154729833387,0.49831958385495395,0.01123701746545624,10.908439088977726,0.5965160451342745
174.0,20.88504052468556,0.49848304705161484,0.01123145304616259,10.907990075284665,0.5965216104725967
175.0,20.888533022294396,0.4986465014075057,0.01122589058001194,10.907541139812896,0.5965277775666556
176.0,20.89202479062346,0.4988099468668659,0.01122033006741784,10.907092282637773,0.5965338426791826
177.0,20.895515829136038,0.4989733833739438,0.011214771508747027,10.906643503834626,0.5965398474730648
178.0,20.899006137295608,0.4991368108729832,0.011209214899774545,10.906194803478767,0.5965459503890667
179.0,20.902495714565838,0.4993002293082412,0.011203660240059737,10.905746181645481,0.5965520910685272
180.0,20.90598456041061,0.4994636386239734,0.011198107529863829,10.905297638410028,0.5965581471538087
181.0,20.909472674293976,0.4996270387644384,0.011192556769405603,10.90484917384764,0.5965641204512352
182.0,20.9129600556802,0.49979042967389903,0.011187007958861484,10.904400788033529,0.5965699841655374
183.0,20.916446704033742,0.49995381129663063,0.011181461097034332,10.903952481042856,0.5965757840383862
184.0,20.919932618819267,0.5001171835769035,0.011175916183972671,10.903504252950764,0.5965813228402815
185.0,20.92341779950162,0.5002805464589886,0.011170373219733711,10.903056103832371,0.5965863579422931
186.0,20.92690224554586,0.5004438998871746,0.011164832183624407,10.902608033761755,0.5965905943436103
187.0,20.930385956417233,0.500607243805744,0.0111592930914681,10.902160042813753,0.5965942095226332
188.0,20.933868931581205,0.5007705781589885,0.01115375592504197,10.901712131062668,0.5965990912931561
189.0,20.937351170503412,0.5009339028912027,0.01114822070556432,10.901264298583458,0.5966049656485102
190.0,20.94083267264971,0.5010972179466854,0.011142687435110635,10.900816545451125,0.5966105348546535
191.0,20.944313437486166,0.5012605232697435,0.011137156093905616,10.900368871740293,0.5966163458412203
192.0,20.947793464478966,0.5014238188046797,0.01113162663853099,10.89992127752556,0.596622749461294
193.0,20.95127275309416,0.5015871044957866,0.011126099113495283,10.899473762881689,0.5966291458654703
