k,PSNR,SSIM,mse,Log-Gradient,Angle
0.0,20.267287877211714,0.46998399460325874,0.0,10.98716179161679,0.5930897036391504
1.0,20.270368580915044,0.47012204186793366,0.010255798575299709,10.98676389103296,0.5954908047256816
2.0,20.27395467692207,0.47028489667904383,0.012088017187158595,10.986305468278237,0.5955111184861933
3.0,20.27756342293735,0.47044897723419465,0.012196621353678348,10.985844353730077,0.5955141391445918
4.0,20.281173990798393,0.4706131900972574,0.01220576168403674,10.985382994238972,0.59551451967715
5.0,20.284784729566123,0.4707774442268193,0.012204578063338814,10.984921590815398,0.5955192966934221
6.0,20.288395392314463,0.47094172569714393,0.01220134415486078,10.984460176875533,0.5955272242378001
7.0,20.292005926611324,0.47110603140055946,0.012197564189969853,10.983998760426218,0.5955354115497444
8.0,20.295616316817732,0.4712703603160516,0.012193552605557288,10.983537344679657,0.5955407017992033
9.0,20.299226556921703,0.4714347120239624,0.012189450781962667,10.983075930914806,0.5955469632343454
10.0,20.30283664436905,0.47159908633768155,0.012185303526973652,10.982614519804088,0.5955533104452831
11.0,20.306446576779493,0.4717634831029458,0.012181121741591602,10.982153111814934,0.5955599472870339
12.0,20.310056352846978,0.47192790221994446,0.012176916084879995,10.981691707292812,0.5955667728870873
13.0,20.31366597155717,0.4720923436072837,0.012172697997785462,10.981230306454343,0.5955737820790272
14.0,20.317275432127353,0.472256807200883,0.0121684710425438,10.980768909487766,0.5955812419823451
15.0,20.320884733852886,0.4724212929416798,0.012164238385615514,10.980307516517344,0.5955886286687165
16.0,20.324493876052326,0.47258580077895473,0.012160001558375572,10.979846127664997,0.5955959846155019
17.0,20.328102857933278,0.4727503306538043,0.012155759705347267,10.97938474304643,0.5956033700450974
18.0,20.331711678896475,0.4729148825209127,0.012151515550110391,10.978923362766347,0.5956107251324827
19.0,20.33532033837128,0.4730794563362896,0.012147271744424546,10.978461986908558,0.5956180846367928
20.0,20.338928835793887,0.47324405205598796,0.0121430254987492,10.978000615566973,0.5956254275929556
21.0,20.342537170601926,0.47340866963617256,0.012138776906452663,10.97753924883282,0.595633400662558
22.0,20.346145342234028,0.47357330903309997,0.012134527712701087,10.977077886789582,0.5956413829988539
23.0,20.34975335012945,0.47373797020306013,0.012130279214237278,10.976616529509789,0.5956493599496961
24.0,20.353361193727824,0.4739026531023774,0.012126031435424503,10.976155177065225,0.5956572296606194
25.0,20.356968872468958,0.47406735768737,0.012121784144876914,10.975693829525323,0.5956649887107156
26.0,20.360576385792704,0.47423208391435395,0.012117536295774094,10.975232486952331,0.5956727079843979
27.0,20.36418373313881,0.4743968317396323,0.012113286414188577,10.974771149431088,0.5956805044284637
28.0,20.367790913946916,0.4745616011194748,0.01210903688015379,10.974309817032884,0.595688324438836
29.0,20.371397927656425,0.47472639201013084,0.012104787979122683,10.97384848982736,0.5956961327720068
30.0,20.375004773706507,0.47489120436780746,0.012100539716153411,10.973387167884013,0.5957039760454624
31.0,20.378611451536052,0.47505603814868413,0.012096292094736321,10.972925851272233,0.5957117576627079
32.0,20.38221796058246,0.4752208933084647,0.012092044707494736,10.97246454006237,0.5957194289833435
33.0,20.385824300283893,0.47538576980315755,0.012087797587701968,10.9720032343243,0.5957269903456989
34.0,20.389430470078516,0.47555066758884523,0.012083551091149131,10.971541934127174,0.595734417667562
35.0,20.393036469404148,0.47571558662158114,0.012079304910014738,10.971080639537885,0.5957417526027327
36.0,20.39664229769275,0.47588052685693955,0.012075059035488198,10.970619350625075,0.5957490159252049
37.0,20.400247954378585,0.47604548825067267,0.012070813601035022,10.97015806745758,0.595756183377273
38.0,20.40385343889861,0.4762104707587196,0.012066568776378466,10.969696790104493,0.5957632995611984
39.0,20.407458750689393,0.4763754743369817,0.012062324469548705,10.96923551863531,0.5957703452085331
40.0,20.411063889187094,0.47654049894130407,0.012058079816751116,10.968774253127723,0.5957773392968971
41.0,20.41466885382747,0.4767055445274977,0.012053835730226862,10.968312993651304,0.5957842706761708
42.0,20.41827364404591,0.47687061105130724,0.012049592261785128,10.967851740274956,0.5957911375628085
43.0,20.42187825927735,0.477035698468447,0.012045349411462071,10.967390493067601,0.5957978663947557
44.0,20.425482698956337,0.4772008067345721,0.012041107079562489,10.966929252098042,0.5958044702587214
45.0,20.42908696251702,0.47736593580529574,0.012036865314807216,10.966468017435187,0.5958109701199045
46.0,20.4326910493931,0.4775310856361767,0.012032624161300591,10.966006789148054,0.5958172886779135
47.0,20.436294959017893,0.47769625618273076,0.012028383303235789,10.965545567304067,0.5958233913997254
48.0,20.439898690824275,0.4778614474004204,0.012024142815200518,10.965084351972134,0.5958300522154599
49.0,20.44350224424473,0.478026659244667,0.01201990274964213,10.964623143218677,0.5958369406172012
50.0,20.447105618711277,0.47819189167083404,0.01201566309996539,10.964161941110335,0.5958438879740505
51.0,20.45070881365556,0.47835714463424267,0.012011424016283611,10.963700745716213,0.5958504455469075
52.0,20.45431182850877,0.47852241809016166,0.012007185379579838,10.96323955710485,0.5958564448196652
53.0,20.4579146627017,0.4786877119938131,0.012002947310312964,10.962778375345414,0.5958621887855361
54.0,20.461517315664686,0.4788530263003678,0.011998709832262155,10.962317200507227,0.5958677916168802
55.0,20.465119786827678,0.47901836096495404,0.01199447294558298,10.961856032659657,0.59587339246721
56.0,20.468722075620192,0.47918371594264686,0.01199023665040486,10.961394871872121,0.5958790679094078
57.0,20.472324181471304,0.4793490911884641,0.011986000946834136,10.960933718214083,0.5958853968363201
58.0,20.475926103809687,0.4795144866573904,0.011981765709172828,10.960472571755888,0.5958917368221125
59.0,20.479527842063586,0.47967990230435364,0.011977531002799746,10.960011432567478,0.5958979823224139
60.0,20.483129395660818,0.47984533808423596,0.01197329688925628,10.95955030071843,0.5959041929825001
61.0,20.486730764028795,0.48001079395186036,0.011969063368718925,10.95908917627836,0.5959102934403467
62.0,20.49033194659449,0.4801762698620189,0.011964830441349782,10.95862805931694,0.5959162897779345
63.0,20.493932942784458,0.4803417657694385,0.011960598107298293,10.958166949903887,0.5959221669446041
64.0,20.497533752024836,0.48050728162880624,0.011956366366702846,10.957705848108969,0.5959280397027574
65.0,20.501134373741326,0.4806728173947609,0.011952135219692024,10.957244754002,0.5959338473888746
66.0,20.504734807359227,0.48083837302188676,0.011947904666385956,10.956783667652845,0.5959396003774301
67.0,20.508335052303394,0.4810039484647235,0.011943674706897164,10.956322589131418,0.595945230838247
68.0,20.511935107998273,0.4811695436777634,0.011939445341331375,10.955861518507684,0.5959508095996019
69.0,20.515534973867886,0.4813351586154481,0.011935216569788494,10.95540045585165,0.5959563175305774
70.0,20.51913464933584,0.48150079323217126,0.011930988324127874,10.954939401233418,0.5959616439605387
71.0,20.522734133825303,0.4816664474822762,0.011926760618713311,10.95447835472311,0.5959668325243894
72.0,20.526333426759045,0.48183212132006314,0.011922533512315796,10.954017316390871,0.5959718962903514
73.0,20.529932527559392,0.481997814699777,0.011918307005024444,10.953556286306895,0.5959769009982672
74.0,20.533531435648257,0.4821635275756226,0.011914081096919259,10.95309526454143,0.5959818426127051
75.0,20.537130150447144,0.4823292599017434,0.011909855788071383,10.952634251164772,0.5959867180644072
76.0,20.540728671377124,0.4824950116322479,0.011905631078543573,10.952173246247272,0.5959915306870199
77.0,20.544326997858853,0.48266078272119534,0.011901406968390267,10.951712249859323,0.5959965837273308
78.0,20.547925129312567,0.48282657312258553,0.011897183457658004,10.951251262071382,0.5960015729281157
79.0,20.551523065158072,0.4829923827903803,0.011892960546385771,10.950790282953946,0.596006386200202
80.0,20.555120804814774,0.4831582116784936,0.011888738186969278,10.950329312578024,0.5960111378312389
81.0,20.558718347701653,0.4833240597407795,0.011884516424706486,10.949868351014242,0.5960159125302558
82.0,20.562315693237263,0.48348992693106263,0.011880295267689463,10.949407398333198,0.5960205190407767
83.0,20.56591284083975,0.48365581320310436,0.011876074715945347,10.948946454605542,0.5960233961698672
84.0,20.569509789926833,0.48382171851062544,0.011871854769489442,10.948485519901974,0.5960320039208968
85.0,20.57310653991582,0.4839876428072926,0.011867635428325574,10.948024594293248,0.5960390604906699
86.0,20.576703090223596,0.48415358604673403,0.011863416692446078,10.947563677850168,0.5960461349665948
87.0,20.58029944026664,0.4843195481825244,0.011859198561060715,10.94710277064359,0.596052863201604
88.0,20.583895589460994,0.48448552916819027,0.011854981023581027,10.94664187274446,0.596058726674702
89.0,20.587491537222302,0.48465152895721203,0.011850764080014325,10.946180984223767,0.5960631844096483
90.0,20.591087282965788,0.48481754750301875,0.011846547729405797,10.945720105152565,0.5960697298134446
91.0,20.594682826106258,0.48498358475899633,0.011842331967157876,10.945259235602,0.5960769374722448
92.0,20.598278166058094,0.4851496406784859,0.01183811679066959,10.9447983756433,0.5960836541682394
93.0,20.60187330223528,0.48531571521477174,0.011833902194019811,10.944337525347805,0.5960903455492496
94.0,20.605468234051372,0.4854818083211021,0.011829688177404542,10.943876684786906,0.5960969127441198
95.0,20.609062960919523,0.4856479199506649,0.011825474741041906,10.943415854032036,0.5961033412688519
96.0,20.612657482252462,0.4858140500566086,0.011821261885171911,10.94295503315468,0.596109538390767
97.0,20.616251797462503,0.48598019859203584,0.011817049610056415,10.942494222226365,0.5961155778931946
98.0,20.619845905961547,0.48614636551000084,0.011812837915978824,10.942033421318664,0.5961216378324419
99.0,20.623439807161105,0.4863125507635062,0.011808626803243884,10.9415726305032,0.5961274448659225
100.0,20.62703350047225,0.48647875430550785,0.011804416230698604,10.941111849850904,0.5961330966895433
101.0,20.630626985305636,0.48664497608892193,0.011800206229578333,10.940651079433296,0.5961386958198697
102.0,20.634220261071533,0.4868112160666076,0.011795996811262636,10.940190319322141,0.5961441567204826
103.0,20.63781332717977,0.4869774741913874,0.011791787976175402,10.939729569589248,0.5961492971740472
104.0,20.641406183039788,0.4871437504160286,0.01178757972475962,10.939268830306474,0.5961537616101926
105.0,20.6449988280606,0.48731004469325345,0.011783372057476819,10.938808101545717,0.5961609595230505
106.0,20.648591261650818,0.4874763569757394,0.011779164974806869,10.938347383378927,0.5961670276575729
107.0,20.65218348321863,0.48764268721611687,0.011774958477247495,10.93788667587809,0.5961725442468183
108.0,20.65577549217184,0.48780903536696857,0.011770752564642068,10.937425979115243,0.5961782304315868
109.0,20.659367287917814,0.4879754013808282,0.011766547237017543,10.936965293162459,0.5961837931102346
110.0,20.66295886986353,0.48814178521018486,0.011762342491505937,10.93650461809187,0.5961892381679742
111.0,20.666550237415542,0.48830818680748717,0.01175813828872876,10.936043953975787,0.5961945351369946
112.0,20.670141389980017,0.4884746061251244,0.01175393467380215,10.935583300886414,0.5961997612162743
113.0,20.67373232696268,0.4886410431154517,0.011749731647473678,10.935122658895999,0.5962054433972644
114.0,20.67732304776888,0.4888074977307682,0.011745529210503366,10.934662028076835,0.5962113095562539
115.0,20.680913551803535,0.4889739699233355,0.011741327363662743,10.934201408501258,0.5962180553941601
116.0,20.684503838471176,0.4891404596453588,0.011737126107734272,10.93374080024165,0.5962248931064552
117.0,20.688093907175904,0.48930696684900643,0.011732925434438048,10.933280203370497,0.5962314654078674
118.0,20.69168375732144,0.4894734914863932,0.011728725343736684,10.932819617960337,0.5962379331932403
119.0,20.695273388311072,0.48964003350959695,0.011724525836577328,10.932359044083755,0.5962441601885026
120.0,20.698862799547708,0.48980659287063605,0.011720326913928185,10.93189848181337,0.5962502200636458
121.0,20.70245199043383,0.4899731695214909,0.011716128559655006,10.9314379312218,0.5962561451569857
122.0,20.706040960371528,0.4901397634141016,0.011711930770807935,10.930977392381696,0.5962623930823876
123.0,20.70962970876247,0.49030637450035197,0.011707733570070732,10.930516865365808,0.5962685521706638
124.0,20.71321823500795,0.4904730027320836,0.011703536958496458,10.93005635024694,0.5962745953487255
125.0,20.71680653850883,0.4906396480610921,0.011699340937153196,10.929595847097927,0.5962803370385544
126.0,20.720394618665573,0.49080631043912915,0.011695145507122693,10.929135355991653,0.5962854974461759
127.0,20.723982474878248,0.4909729898178952,0.011690950669499293,10.928674877001042,0.5962902751883092
128.0,20.727570106546512,0.4911396861490542,0.011686756425388524,10.928214410199061,0.5962949487058022
129.0,20.731157513069626,0.4913063993842164,0.011682562775905835,10.92775395565872,0.5963001069663884
130.0,20.73474469384644,0.4914731294749466,0.011678369722175449,10.927293513453069,0.5963053250730729
131.0,20.73833164827541,0.49163987637277223,0.011674177265328984,10.926833083655202,0.5963099692637305
132.0,20.74191837575459,0.4918066400291681,0.011669985388173059,10.926372666335604,0.5963140876280214
133.0,20.74550487568161,0.4919734203955622,0.011665794093021186,10.925912261565134,0.596317876925537
134.0,20.74909114745374,0.4921402174233435,0.01166160339683121,10.925451869417032,0.5963215376200103
135.0,20.752677190467796,0.4923070310638474,0.011657413300782906,10.92499148996457,0.596325100547609
136.0,20.756263004120235,0.49247386126837034,0.011653223806057541,10.924531123281076,0.5963289996058008
137.0,20.759848587807102,0.492640707988168,0.01164903491383691,10.92407076943991,0.5963332458569428
138.0,20.763433940924024,0.4928075711744379,0.011644846625302054,10.923610428514479,0.5963349753784919
139.0,20.767019062866254,0.4929744507783376,0.011640658941632064,10.923150100578233,0.5963404455389322
140.0,20.77060395302862,0.4931413467509864,0.011636471864002714,10.922689785704662,0.5963449008697236
141.0,20.774188610805574,0.49330825904345543,0.011632285393585228,10.922229483967302,0.5963491975903595
142.0,20.777773035591153,0.4934751876067607,0.01162809953154495,10.921769195439726,0.5963534726345799
143.0,20.781357226779,0.4936421323918881,0.011623914266301374,10.921308920194504,0.5963580916544701
144.0,20.78494118376237,0.49380909334976913,0.011619729577530772,10.920848658302798,0.5963629598315197
145.0,20.788524905934093,0.49397607043129294,0.011615545499107914,10.920388409838287,0.5963678640071522
146.0,20.792108392686607,0.4941430635873018,0.01161136201630908,10.91992817487454,0.5963733790605141
147.0,20.795691643411963,0.49431007276860206,0.011607179143206647,10.919467953485283,0.5963786564280065
148.0,20.79927465750181,0.4944770979259423,0.011602996884448092,10.919007745744315,0.5963836509510575
149.0,20.8028574343474,0.4946441390100345,0.011598815241195846,10.918547551725474,0.5963885948036326
150.0,20.80643997333957,0.49481119597154555,0.011594634214596947,10.91808737150264,0.5963953561749135
151.0,20.810022273868793,0.49497826876109535,0.01159045380578147,10.917627205149737,0.5964018161705037
152.0,20.813604335325113,0.49514535732925796,0.011586274015860388,10.917167052740723,0.5964079412752546
153.0,20.81718615709819,0.49531246162657033,0.011582094845066589,10.916706914349614,0.5964137519689163
154.0,20.820767738577295,0.4954795816035193,0.011577916254647436,10.916246790049751,0.5964193847778647
155.0,20.82434907915129,0.49564671721054143,0.011573738283405143,10.915786679915247,0.596424835739597
156.0,20.827930178208653,0.4958138683980435,0.011569560932537214,10.915326584020251,0.5964304859748492
157.0,20.831511035137453,0.49598103511637337,0.011565384203178247,10.914866502438954,0.5964361889925414
158.0,20.835091649325367,0.4961482173158438,0.011561208096435635,10.914406435245587,0.5964419978238552
159.0,20.83867202015968,0.4963154149467212,0.011557032613387976,10.913946382514425,0.5964478808942129
160.0,20.84225214702729,0.4964826279592267,0.011552857755083346,10.913486344319779,0.5964538474097891
161.0,20.845832029314664,0.49664985630353725,0.011548683522210525,10.913026320736002,0.596459891601004
162.0,20.84941166640788,0.4968170999297799,0.01154450991558507,10.912566311837482,0.5964660206531033
163.0,20.852991057692623,0.4969843587880494,0.01154033693622201,10.912106317698651,0.5964720422102544
164.0,20.856570202554177,0.4971516328283852,0.011536164585099158,10.911646338393986,0.5964781194453738
165.0,20.86014910037744,0.4973189220007896,0.011531992863155724,10.911186373997998,0.5964842456132772
166.0,20.863727750546918,0.4974862262552188,0.01152782177129102,10.910726424585249,0.5964902371583518
167.0,20.86730615244672,0.4976535455415803,0.011523651310016581,10.910266490230338,0.5964959206847283
168.0,20.87088430546055,0.4978208798097496,0.011519481478747536,10.909806571007914,0.596501074512002
169.0,20.874462208971742,0.4979882290095432,0.011515312243917638,10.909346666991766,0.5965060415056457
170.0,20.878039862363224,0.4981555930907486,0.011511143640400196,10.908886778256637,0.5965111513476515
171.0,20.88161726501754,0.4983229720030951,0.011506975669050502,10.908426904877311,0.5965166208107108
172.0,20.88519441631682,0.49849036569628496,0.01150280833064827,10.907967046928617,0.5965223822422197
173.0,20.888771315642835,0.49865777411996176,0.01149864162592693,10.907507204485425,0.5965287504306509
174.0,20.892347962376938,0.498825197223731,0.01149447555557275,10.907047377622654,0.5965349603700608
175.0,20.895924355900103,0.49899263495715473,0.011490310120224664,10.906587566415258,0.5965410866115117
176.0,20.89950049559291,0.49916008726975525,0.011486145315739502,10.90612777093825,0.5965473945675662
177.0,20.903076380835536,0.4993275541110007,0.011481981142004067,10.905667991266677,0.5965536559122804
178.0,20.906652011007797,0.4994950354303301,0.011477817599548907,10.905208227475638,0.5965598809425657
179.0,20.91022738548908,0.4996625311771255,0.011473654688860958,10.90474847964027,0.5965659905437267
180.0,20.913802503658413,0.49983004130073233,0.011469492410383747,10.904288747835759,0.5965719873231392
181.0,20.917377364894413,0.499997565750455,0.011465330763789148,10.903829032137319,0.5965778935747944
182.0,20.92095196857532,0.500165104475549,0.01146116974876369,10.903369332620205,0.5965834137572249
183.0,20.924526314078967,0.5003326574252297,0.011457009365627109,10.902909649359716,0.5965882405942251
184.0,20.92810040078282,0.5005002245486666,0.011452849614657696,10.90244998243119,0.5965923614733893
185.0,20.931674228063937,0.5006678057949895,0.011448690478381552,10.901990331909124,0.596596380213651
186.0,20.935247795298988,0.5008354011132804,0.01144453195464199,10.90153069786817,0.5966020611011509
187.0,20.938821101864264,0.5010030104525846,0.011440374050945286,10.901071080383389,0.596608040172336
188.0,20.942394147135648,0.501170633761901,0.011436216780555973,10.900611479530314,0.5966137432376108
189.0,20.945966930488645,0.5013382709901754,0.0114320601435882,10.900151895384525,0.5966197421879479
190.0,20.949539451298364,0.5015059220863332,0.011427904083582284,10.899692328021109,0.5966256680892371
191.0,20.953111708939534,0.5016735869992363,0.011423748616064927,10.899232777515484,0.5966322261293963
192.0,20.956683702786346,0.5018412656777032,0.011419593778681451,10.898773243943301,0.5966391579338491
193.0,20.960255432212314,0.5020089580704875,0.011415439568601783,10.898313727380186,0.5966455501323545
