k,PSNR,SSIM,mse,Log-Gradient,Angle
0.0,20.268572371895534,0.44101515210995706,0.0,10.952726803612858,0.5969899719334794
1.0,20.27170040876208,0.441165543437104,0.0102750001539432,10.952305924545621,0.5998332921540888
2.0,20.275355504706752,0.4413429668967718,0.012171858131410477,10.951817672092332,0.5998355690322752
3.0,20.279032935562,0.44152162302644077,0.012278908130803783,10.951326560125306,0.5998390784009101
4.0,20.28271140316093,0.44170037207247814,0.012284799041562303,10.950835280204508,0.5998459377907034
5.0,20.286389216415692,0.44187912141643,0.012280247217034747,10.950344052706065,0.5998536053686846
6.0,20.290066160075085,0.4420578588769588,0.012273970022811671,10.949852909103877,0.5998628604259056
7.0,20.29374218883849,0.44223658177842595,0.012267243021013528,10.949361856420056,0.5998728947051135
8.0,20.297417287780583,0.4424152892721617,0.01226033351173161,10.948870897342806,0.599883231913516
9.0,20.301091451935847,0.4425939809886658,0.012253324934174565,10.948380033393356,0.5998935367572641
10.0,20.304764678928088,0.44277265671669336,0.012246266957563041,10.947889265248595,0.5999035424584189
11.0,20.308436967785745,0.44295131633443763,0.01223918838547104,10.94739859330499,0.5999135183815251
12.0,20.312108317786574,0.4431299597349556,0.012232100238703133,10.946908017836144,0.5999235299467058
13.0,20.315778728302885,0.4433085868250757,0.012225005340916615,10.94641753903849,0.5999334264458789
14.0,20.319448198781075,0.44348719751798726,0.012217904649339159,10.945927157104611,0.5999433770242223
15.0,20.323116728713245,0.4436657917307796,0.012210803557439646,10.945436872174241,0.5999533633735477
16.0,20.326784317602552,0.4438443693817367,0.012203699343530177,10.94494668439139,0.5999633032676664
17.0,20.3304509649601,0.44402293039000057,0.01219659666924072,10.944456593857666,0.5999732348612051
18.0,20.33411667030272,0.44420147467533183,0.012189493748881518,10.943966600669793,0.5999833915649683
19.0,20.33778143315147,0.444380002157956,0.012182393631824558,10.943476704922865,0.5999935891354566
20.0,20.34144525303066,0.4445585127584346,0.012175294194277634,10.94298690672272,0.6000037881198382
21.0,20.34510812946703,0.4447370063975991,0.01216819630929721,10.942497206154684,0.6000139340673923
22.0,20.34877006198927,0.4449154829964817,0.012161099936195772,10.942007603306955,0.6000241454747878
23.0,20.35243105012762,0.4450939424762774,0.01215400681517306,10.941518098263616,0.6000343939202554
24.0,20.356091093413596,0.44527238475831893,0.012146916971327535,10.941028691107883,0.6000447324751853
25.0,20.35975019137978,0.44545080976403506,0.012139830243124225,10.940539381924786,0.6000551069460106
26.0,20.36340834355968,0.4456292174149629,0.012132745677355727,10.940050170799196,0.6000654049971249
27.0,20.36706554948763,0.4458076076327093,0.012125663914511926,10.939561057812195,0.6000756093474563
28.0,20.370721808698676,0.44598598033895476,0.01211858540707546,10.93907204304488,0.6000857776646643
29.0,20.374377120728518,0.44616433545544526,0.012111510160626563,10.93858312657806,0.6000959960165649
30.0,20.37803148511348,0.4463426729039796,0.012104438178930223,10.93809430849232,0.600106178458942
31.0,20.381684901390432,0.4465209926064239,0.01209736946432007,10.937605588868038,0.6001162412729869
32.0,20.385337369096803,0.44669929448467344,0.012090304017992643,10.937116967785435,0.6001261992691187
33.0,20.388988887770534,0.4468775784606989,0.012083241840234687,10.936628445324585,0.6001360875567533
34.0,20.392639456950064,0.44705584445649293,0.012076182608059708,10.936140021562126,0.6001459097405678
35.0,20.396289076174313,0.4472340923941098,0.01206912607139092,10.93565169658105,0.6001556478678495
36.0,20.399937744982672,0.4474123221956405,0.012062072774102178,10.935163470461017,0.6001653010711565
37.0,20.403585462914997,0.4475905337832165,0.0120550216137365,10.934675343284825,0.6001748239887925
38.0,20.407232229511617,0.4477687270790252,0.012047973472719213,10.934187315132762,0.6001842538840315
39.0,20.410878044313318,0.4479469020052788,0.012040927748282262,10.933699386093783,0.6001936623199895
40.0,20.414522906861322,0.44812505848424045,0.012033884951246061,10.93321155624936,0.6002030130763435
41.0,20.418166816697333,0.44830319643821986,0.012026845068903693,10.93272382568022,0.6002122737700485
42.0,20.421809773363485,0.44848131578955414,0.012019808422816563,10.932236194465167,0.600221403253349
43.0,20.425451776402355,0.44865941646063145,0.012012775012734137,10.931748662682942,0.6002304469793616
44.0,20.42909282535696,0.4488374983738764,0.012005744838292375,10.931261230412233,0.600239372188985
45.0,20.43273291977077,0.4490155614517568,0.01199871789903001,10.930773897731667,0.6002481571634594
46.0,20.436372059187683,0.44919360561677824,0.011991694194402257,10.930286664719821,0.6002568586682345
47.0,20.440010243152038,0.44937163079149395,0.011984673723792201,10.929799531455222,0.600265530802847
48.0,20.443647471208614,0.44954963689849015,0.011977656486520437,10.929312498016342,0.60027430236767
49.0,20.447283742902634,0.4497276238603943,0.011970642344934713,10.928825564477744,0.6002832429835285
50.0,20.450919057779736,0.4499055915998819,0.011963631290824174,10.928338730914247,0.6002921077278599
51.0,20.454553415386023,0.45008354003966106,0.011956623459047515,10.927851997404199,0.6003010058203567
52.0,20.458186815268004,0.45026146910248704,0.011949618848982964,10.927365364025901,0.6003099258848236
53.0,20.461819256972657,0.4504393787111551,0.011942617459981387,10.926878830857609,0.6003187845054726
54.0,20.46545074004738,0.4506172687884939,0.011935619291369938,10.926392397977532,0.6003277290652348
55.0,20.469081264040017,0.4507951392573893,0.01192862434245501,10.925906065463836,0.600336889639301
56.0,20.472710828498855,0.45097299004075425,0.011921632540156366,10.925419833394308,0.600346109536585
57.0,20.47633943297263,0.4511508210615487,0.011914643839067781,10.92493370184648,0.600355459080755
58.0,20.479967077010485,0.45132863224278136,0.011907658356116263,10.924447670898381,0.6003648928876321
59.0,20.48359376016204,0.45150642350748954,0.011900676090714222,10.923961740628,0.6003743263774829
60.0,20.48721948197735,0.45168419477875804,0.011893697042261678,10.923475911113275,0.6003837912857443
61.0,20.490844242006897,0.4518619459797207,0.011886721210146976,10.922990182432109,0.6003933144791276
62.0,20.49446803980163,0.4520396770335448,0.011879748593747677,10.922504554662355,0.6004029342917294
63.0,20.498090874912926,0.4522173878634457,0.011872779192431272,10.922019027881824,0.6004125939613882
64.0,20.501712746892615,0.4523950783926783,0.011865813005556244,10.921533602168285,0.600422269188084
65.0,20.505333655292954,0.4525727485445416,0.011858850032472449,10.92104827759946,0.6004319258440896
66.0,20.508953599666686,0.45275039824237456,0.011851890272521707,10.920563054253034,0.6004415754662163
67.0,20.512572579566953,0.45292802740956645,0.01184493372503851,10.920077932206638,0.6004513453084038
68.0,20.516190594547385,0.4531056359695431,0.011837980389350102,10.919592911537869,0.6004611646003705
69.0,20.51980764416204,0.45328322384577585,0.011831030264777066,10.919107992324276,0.6004710328016475
70.0,20.523423727965422,0.45346079096177866,0.011824083350633448,10.918623174643367,0.6004807031813769
71.0,20.527038845512507,0.4536383372411145,0.011817139646227073,10.9181384585726,0.6004897740272913
72.0,20.530652996358686,0.45381586260738377,0.011810199150859608,10.917653844189394,0.600498429861561
73.0,20.534266180059838,0.4539933669842333,0.011803261863826844,10.917169331571124,0.6005070288435989
74.0,20.53787839617227,0.454170850295353,0.011796327784418614,10.91668492079512,0.6005156324774129
75.0,20.54148964425275,0.45434831246448176,0.011789396911919072,10.91620061193867,0.6005225983214741
76.0,20.545099923858494,0.45452575341539464,0.011782469245606627,10.915716405079014,0.6005305655524987
77.0,20.548709234547182,0.45470317307192265,0.011775544784753936,10.915232300293347,0.6005392217786744
78.0,20.55231757587694,0.4548805713579292,0.011768623528628007,10.914748297658827,0.6005475242983533
79.0,20.55592494740635,0.4550579481973314,0.011761705476490126,10.914264397252559,0.6005556573989015
80.0,20.55953134869445,0.4552353035140891,0.011754790627595884,10.91378059915161,0.6005637728358673
81.0,20.56313677930074,0.4554126372322087,0.011747878981195019,10.913296903432997,0.6005719514107231
82.0,20.566741238785184,0.455589949275735,0.011740970536531536,10.912813310173696,0.6005800634989996
83.0,20.570344726708175,0.45576723956877085,0.011734065292843624,10.912329819450637,0.6005881731250768
84.0,20.57394724263059,0.45594450803545183,0.011727163249363454,10.911846431340702,0.6005963318198603
85.0,20.57754878611377,0.4561217545999699,0.01172026440531721,10.911363145920737,0.6006045386244523
86.0,20.581149356719493,0.45629897918655987,0.011713368759925055,10.910879963267528,0.600612740994574
87.0,20.58474895401002,0.4564761817194943,0.011706476312400998,10.91039688345783,0.600620869273433
88.0,20.58834757754806,0.45665336212310575,0.011699587061952841,10.909913906568345,0.6006292474196907
89.0,20.59194522689679,0.4568305203217647,0.011692701007782042,10.90943103267573,0.6006379853392697
90.0,20.595541901619846,0.4570076562398934,0.011685818149083762,10.9089482618566,0.6006472543539817
91.0,20.599137601281335,0.4571847698019533,0.011678938485046612,10.908465594187518,0.6006568431061183
92.0,20.602732325445817,0.4573618609324643,0.011672062014852767,10.90798302974501,0.6006665993002902
93.0,20.606326073678332,0.45753892955597913,0.011665188737677721,10.907500568605546,0.6006766279243897
94.0,20.609918845544378,0.4577159755971117,0.011658318652690276,10.907018210845555,0.6006867560600534
95.0,20.613510640609913,0.45789299898051156,0.01165145175264634,10.90653595654145,0.6006964589960095
96.0,20.61710145844138,0.4580699996308882,0.011644588035542702,10.906053805769595,0.6007059689152213
97.0,20.62069129860566,0.45824697747298826,0.011637727500640774,10.905571758606314,0.600715520176443
98.0,20.624280160670132,0.4584239324316099,0.011630870147203634,10.905089815127875,0.6007252424375289
99.0,20.627868044202643,0.4586008644316037,0.011624015974495886,10.904607975410503,0.6007350557416425
100.0,20.63145494877149,0.4587777733978579,0.011617164981783662,10.904126239530374,0.6007448496936545
101.0,20.63504087394545,0.4589546592553198,0.011610317168334479,10.903644607563615,0.6007546867992642
102.0,20.638625819293775,0.45913152192898243,0.01160347253341709,10.903163079586308,0.6007646920277004
103.0,20.64220978438618,0.45930836134387976,0.011596631076301565,10.90268165567448,0.6007747171053389
104.0,20.645792768792873,0.45948517742510825,0.011589792796259081,10.902200335904114,0.6007846607750055
105.0,20.649374772084514,0.4596619700978038,0.01158295769256173,10.901719120351144,0.6007942250385363
106.0,20.652955793832245,0.45983873928714813,0.011576125764482787,10.901238009091454,0.6008032038827326
107.0,20.656535833607677,0.4600154849183859,0.011569297011296206,10.900757002200878,0.600811723087445
108.0,20.660114890982918,0.46019220691679963,0.011562471432276879,10.900276099755201,0.6008201682260433
109.0,20.66369296553052,0.46036890520772317,0.011555649026700362,10.899795301830164,0.6008286249032169
110.0,20.66727005682353,0.46054557971654336,0.01154882979384291,10.899314608501449,0.6008370230369365
111.0,20.670846164435474,0.46072223036869636,0.011542013732981362,10.898834019844696,0.6008453082610893
112.0,20.674421287940348,0.46089885708966305,0.011535200843393085,10.898353535935492,0.6008535580002946
113.0,20.677995426912638,0.4610754598049825,0.011528391124356017,10.897873156849375,0.6008616838875686
114.0,20.681568580927294,0.4612520384402414,0.011521584575148385,10.897392882661835,0.6008697796298355
115.0,20.68514074955976,0.4614285929210711,0.011514781195048888,10.896912713448305,0.600877873245002
116.0,20.688711932385964,0.46160512317316144,0.011507980983336604,10.896432649284177,0.6008858432745025
117.0,20.69228212898228,0.4617816291222494,0.011501183939290878,10.895952690244787,0.6008938040642132
118.0,20.695851338925625,0.4619581106941217,0.011494390062191318,10.895472836405421,0.6009017888545847
119.0,20.69941956179334,0.462134567814619,0.011487599351317913,10.894993087841314,0.6009100744751943
120.0,20.702986797163273,0.4623110004096344,0.01148081180595078,10.894513444627654,0.600918371844225
121.0,20.706553044613774,0.46248740840510427,0.011474027425370405,10.894033906839573,0.6009269111459388
122.0,20.71011830372365,0.4626637917270244,0.011467246208857423,10.893554474552154,0.6009355474058357
123.0,20.71368257407221,0.46284015030144204,0.011460468155692865,10.893075147840428,0.6009440008326618
124.0,20.717245855239238,0.463016484054451,0.011453693265157928,10.892595926779379,0.600952451083881
125.0,20.72080814680501,0.4631927929122024,0.01144692153653416,10.892116811443932,0.600960993103911
126.0,20.724369448350288,0.46336907680089534,0.011440152969103489,10.891637801908967,0.6009695736137278
127.0,20.727929759456334,0.4635453356467814,0.011433387560817547,10.891158898249316,0.6009780396825734
128.0,20.731489079704872,0.46372156937617115,0.011426625310479976,10.890680100539761,0.6009867730125581
129.0,20.73504740867815,0.463897777915415,0.01141986621611561,10.890201408855049,0.6009955349846507
130.0,20.738604745958863,0.464073961190933,0.011413110276673534,10.889722823269876,0.6010044773379445
131.0,20.742161091130246,0.4642501191291795,0.011406357491662517,10.889244343858888,0.6010133819148586
132.0,20.745716443775986,0.464426251656673,0.011399607860593991,10.888765970696673,0.6010222946026486
133.0,20.749270803480275,0.46460235869998795,0.011392861380677114,10.888287703857753,0.6010310354289304
134.0,20.752824169827807,0.4647784401857397,0.01138611804985385,10.887809543416594,0.6010395985685751
135.0,20.75637654240375,0.4649544960406091,0.011379377867676347,10.887331489447604,0.6010480236970547
136.0,20.75992792079379,0.46513052619132184,0.011372640820717081,10.886853542024367,0.6010564661616613
137.0,20.763478304584083,0.4653065305646684,0.011365906896180271,10.886375701219745,0.6010650570502334
138.0,20.767027693361293,0.4654825090874768,0.011359176117841999,10.885897967107983,0.6010725159530733
139.0,20.77057608671257,0.4656584616866448,0.011352448482455067,10.88542033976328,0.6010790321064473
140.0,20.774123484225573,0.46583438828910834,0.011345723981697243,10.884942819259452,0.6010859026247066
141.0,20.77766988548845,0.4660102888218756,0.011339002576135489,10.884465405668383,0.6010927938796002
142.0,20.781215290089833,0.46618616321199546,0.011332284281850263,10.883988099062728,0.6010996496755673
143.0,20.784759697618867,0.4663620113865759,0.011325569126246302,10.883510899516484,0.6011064527624317
144.0,20.788303107665197,0.46653783327278137,0.01131885710904012,10.883033807103596,0.6011131544025797
145.0,20.791845519818956,0.46671362879782613,0.01131214822995451,10.882556821897948,0.6011202757826143
146.0,20.795386933670773,0.46688939788898826,0.011305442488718233,10.88207994397337,0.6011274050653125
147.0,20.798927348811805,0.4670651404735892,0.01129873988104998,10.881603173403617,0.6011349061703741
148.0,20.802466764833667,0.467240856479012,0.011292040393455218,10.881126510262051,0.6011426932036176
149.0,20.80600518132853,0.4674165458326968,0.0112853440018185,10.880649954621218,0.6011504281689192
150.0,20.809542597889017,0.4675922084621346,0.011278650734634745,10.880173506554671,0.6011580626471882
151.0,20.813079014108283,0.46776784429487694,0.011271960591826346,10.87969716613591,0.60116558845641
152.0,20.816614429579985,0.46794345325852366,0.011265273573330192,10.87922093343838,0.601173081573648
153.0,20.82014884389828,0.4681190352807387,0.011258589652601937,10.878744808534377,0.6011807562436006
154.0,20.823682256657822,0.46829459028923903,0.011251908842516554,10.878268791496698,0.6011885278625027
155.0,20.82721466745378,0.468470118211799,0.011245231156267386,10.877792882398621,0.60119673440566
156.0,20.830746075881827,0.46864561897623985,0.011238556593875107,10.877317081313366,0.6012050229370857
157.0,20.834276481538147,0.46882109251045767,0.011231885155371745,10.876841388314096,0.6012129308915882
158.0,20.837805884019417,0.46899653874238356,0.011225216840800105,10.876365803473911,0.6012203753775888
159.0,20.841334282922848,0.4691719576000228,0.011218551650213049,10.875890326865857,0.6012273895763999
160.0,20.844861677846126,0.46934734901142816,0.011211889583672842,10.87541495856292,0.6012342949259667
161.0,20.848388068387468,0.4695227129047133,0.011205230641250561,10.874939698638025,0.6012423944072496
162.0,20.851913454145603,0.46969804920804786,0.011198574823025283,10.874464547164042,0.6012503415932329
163.0,20.85543783471976,0.46987335784965767,0.011191922098595592,10.87398950421395,0.6012590383508692
164.0,20.85896120970967,0.47004863875782726,0.011185272497309795,10.8735145698605,0.6012677766464799
165.0,20.862483578715597,0.47022389186089514,0.011178626020323018,10.87303974417637,0.6012763249537176
166.0,20.866004941338314,0.47039911708726706,0.011171982643785546,10.872565027232586,0.6012845658230165
167.0,20.869525297179088,0.4705743143653969,0.011165342380150413,10.872090419100953,0.601292591849495
168.0,20.87304464583971,0.4707494836237955,0.011158705241227342,10.871615919854005,0.6013003993405935
169.0,20.876562986922487,0.47092462479104213,0.011152071227167134,10.871141529564218,0.6013080043776405
170.0,20.88008032003024,0.47109973779576325,0.011145440338122963,10.870667248304006,0.6013156425591848
171.0,20.883596644766286,0.47127482256664804,0.01113881257424965,10.870193076145725,0.6013234999045947
172.0,20.887111960734487,0.4714498790324466,0.011132187935703008,10.869719013161673,0.601331190575808
173.0,20.890626267539204,0.47162490712196603,0.011125566422639215,10.869245059424085,0.6013386370495689
174.0,20.89413956478532,0.47179990676406974,0.011118948035214127,10.868771215005143,0.6013457742876541
175.0,20.897651852078223,0.4719748778876786,0.011112332773582548,10.868297479976961,0.6013529337711511
176.0,20.901163129023836,0.4721498204217827,0.011105720637897646,10.867823854411604,0.601360379492302
177.0,20.904673395228592,0.472324734295414,0.011099111628310213,10.867350338381065,0.6013685334041502
178.0,20.908182650299437,0.4724996194376825,0.011092505742428992,10.866876931957215,0.6013765962473608
179.0,20.911690893843847,0.47267447577774235,0.011085902955976255,10.866403635211134,0.6013844967864066
180.0,20.91519812546981,0.47284930324481844,0.011079303296381082,10.865930448214655,0.601392296799512
181.0,20.918704344785844,0.47302410176818466,0.011072706737548921,10.865457371039128,0.6014000726025129
182.0,20.922209551400982,0.4731988712771858,0.011066113303816606,10.864984403756209,0.601407815411576
183.0,20.92571374492477,0.4733736117012149,0.011059522996096307,10.864511546437505,0.6014154457214459
184.0,20.92921692496729,0.47354832296973387,0.011052935814553013,10.864038799154564,0.6014229198034045
185.0,20.93271909113914,0.4737230050122612,0.011046351759343464,10.86356616197887,0.6014301864427068
186.0,20.936220243051437,0.4738976577583777,0.011039770830615215,10.863093634981844,0.6014365893130413
187.0,20.939720380315833,0.47407228113771843,0.011033193028505799,10.862621218234846,0.601442602849581
188.0,20.943219502544494,0.4742468750799908,0.011026618324211762,10.862148911809033,0.6014507540580503
189.0,20.94671760935011,0.47442143951494736,0.011020046745036413,10.861676715775607,0.6014586756056546
190.0,20.9502147003459,0.47459597437241574,0.011013478291463074,10.861204630205712,0.6014665393691864
191.0,20.953710775145616,0.474770479582272,0.011006912963595388,10.860732655170423,0.6014736182958915
192.0,20.957205833363517,0.47494495507446555,0.011000350753973114,10.86026079074082,0.6014796665330726
193.0,20.96069987461441,0.4751194007789928,0.010993791660661396,10.85978903698793,0.601485921759565
