k,PSNR,SSIM,mse,Log-Gradient,Angle
0.0,20.268572371895534,0.44101515210995706,0.0,10.952726803612858,0.5969899719334794
1.0,20.27170018543184,0.44116553269891473,0.01027426664450888,10.952305954596408,0.5998332914323765
2.0,20.275354797094263,0.44134293274857955,0.01217026525019955,10.951817767059605,0.5998355672564062
3.0,20.279031481126637,0.44152155270415566,0.012276442420663376,10.951326755084748,0.5998390736129288
4.0,20.28270893930767,0.44170025280189457,0.012281458585311728,10.950835610247488,0.599845928991683
5.0,20.286385480614435,0.4418789404197952,0.012276032448735052,10.950344552923985,0.5998535940988681
6.0,20.29006088987581,0.4420576033738372,0.012268881846733049,10.949853614585894,0.5998628452115862
7.0,20.293735121874708,0.44223623898592795,0.012261282447955572,10.949362802252542,0.599872874557002
8.0,20.297408161770623,0.44241484640502504,0.012253501585185575,10.948872118609106,0.5998832061103544
9.0,20.30108000468345,0.4425934252593211,0.01224562271170858,10.948381565173635,0.5998935039036892
10.0,20.304750648322873,0.442771975335307,0.012237695504249276,10.94789114261974,0.5999035017139229
11.0,20.308420091803526,0.44295049650894036,0.012229748772682316,10.947400851340548,0.5999134695569106
12.0,20.312088334489665,0.4431289886710938,0.012221793540520436,10.946910691606265,0.5999234722926703
13.0,20.315755375840403,0.4433074517264391,0.012213832630829612,10.946420663609874,0.5999333587551269
14.0,20.319421215389223,0.4434858855860528,0.01220586700183394,10.945930767540451,0.5999432998190739
15.0,20.323085852715632,0.4436642901649314,0.01219790204676284,10.945441003534194,0.5999532758571959
16.0,20.326749287410458,0.44384266537932043,0.012189935043552425,10.944951371731513,0.5999632035824315
17.0,20.330411519072776,0.4440210111463437,0.01218197065418519,10.944461872230374,0.5999731277417335
18.0,20.334072547307677,0.4441993273837869,0.012174007091997514,10.943972505123831,0.5999832719232868
19.0,20.33773237172477,0.444377614009929,0.012166047406933672,10.943483270503252,0.5999934563898551
20.0,20.341390991937168,0.4445558709434328,0.012158089473343878,10.942994168470715,0.6000036430501624
21.0,20.34504840756078,0.4447340981032508,0.012150134163625162,10.942505199107742,0.6000137747580673
22.0,20.348704618213674,0.4449122954085764,0.012142181437887544,10.942016362498682,0.6000239697583026
23.0,20.352359623515795,0.4450904627788068,0.012134233035900627,10.941527658723736,0.6000342011471461
24.0,20.356013423088633,0.4452686001335011,0.012126288982115416,10.941039087862183,0.600044521549566
25.0,20.359666016555046,0.4454467073923634,0.012118349114106416,10.940550649995096,0.6000548790811461
26.0,20.363317403539114,0.44562478447522585,0.012110412476991635,10.940062345203328,0.6000651615094973
27.0,20.366967583665982,0.4458028313020333,0.012102479711582157,10.939574173563914,0.6000753490160656
28.0,20.37061655656183,0.4459808477928428,0.012094551269976167,10.939086135153858,0.6000854969274654
29.0,20.374264321853786,0.4461588338678018,0.012086627157098604,10.938598230049841,0.600095692830842
30.0,20.377910879169853,0.44633678944715643,0.012078707376058522,10.938110458328271,0.6001058562261861
31.0,20.381556228138894,0.4465147144512394,0.012070791928533227,10.937622820065318,0.6001159006598826
32.0,20.385200368390606,0.4466926088004726,0.01206288081506265,10.937135315336945,0.6001258377370798
33.0,20.388843299555482,0.4468704724153538,0.012054974035276717,10.936647944218935,0.6001357052335458
34.0,20.392485021264797,0.4470483052164725,0.012047071264262276,10.936160706783602,0.6001455033548414
35.0,20.396125533150595,0.4472261071244898,0.01203917225253509,10.935673603109553,0.6001552191443
36.0,20.399764834845676,0.4474038780601501,0.012031277543313157,10.935186633272028,0.6001648507332281
37.0,20.40340292598359,0.4475816179442747,0.012023386028684442,10.934699797349387,0.6001743534486121
38.0,20.40703980619863,0.4477593266977616,0.012015498598409858,10.934213095417407,0.6001837550253882
39.0,20.410675475125842,0.44793700424158783,0.012007614639573663,10.933726527560571,0.6001931392476996
40.0,20.414309932401004,0.4481146504967981,0.01199973466918456,10.933240093855735,0.600202465461013
41.0,20.41794317766064,0.44829226538452865,0.011991858677131817,10.932753794378987,0.6002117058220504
42.0,20.421575210541988,0.4484698488259777,0.011983986980538935,10.932267629204468,0.6002208123944043
43.0,20.425206030683036,0.448647400742429,0.011976119578496966,10.931781598406218,0.6002298358016936
44.0,20.428835637722457,0.44882492105523425,0.011968256469983668,10.931295702058184,0.6002387394649432
45.0,20.432464031299695,0.44900240968581745,0.011960397653879871,10.930809940234212,0.6002475071506735
46.0,20.436091211054872,0.4491798665556952,0.011952543128982997,10.93032431300806,0.6002561842209714
47.0,20.439717176628875,0.4493572915864425,0.011944692894018753,10.929838820453385,0.6002648257924157
48.0,20.44334192766328,0.4495346846997201,0.01193684694765054,10.92935346264376,0.6002735409667613
49.0,20.44696546380039,0.4497120458172558,0.011929005151984123,10.928868239648828,0.6002824585310788
50.0,20.450587784683236,0.4498893748608561,0.011921167496443234,10.928383151538402,0.6002912953718886
51.0,20.45420888995555,0.4500666717524095,0.011913334116513819,10.927898198385803,0.6003001455138511
52.0,20.457828779261796,0.45024393641387556,0.01190550501091847,10.927413380264268,0.6003090445356271
53.0,20.461447452247157,0.4504211687672859,0.011897680178352814,10.926928697246947,0.600317872466201
54.0,20.465064908557533,0.4505983687347503,0.01188985961748889,10.926444149406903,0.6003267525061887
55.0,20.468681147839547,0.4507755362384593,0.01188204332697848,10.925959736817115,0.6003358668416506
56.0,20.472296169740545,0.45095267120067456,0.011874231231464381,10.925475459550135,0.6003450340645345
57.0,20.4759099739086,0.45112977354373435,0.011866423287658898,10.924991317678234,0.6003543430189372
58.0,20.479522559992485,0.4513068431900569,0.011858619610686905,10.924507311274132,0.6003637193469419
59.0,20.48313392764172,0.4514838800621351,0.011850820199307277,10.924023440410469,0.6003731265536841
60.0,20.48674407650654,0.45166088408253563,0.011843025052267005,10.923539705159795,0.6003825310065332
61.0,20.49035300623789,0.45183785517390357,0.011835234168301555,10.923056105594581,0.6003920101194432
62.0,20.493960716487454,0.4520147932589649,0.011827447546136054,10.922572641787209,0.6004015619947273
63.0,20.49756720690764,0.45219169826051947,0.011819665184485798,10.922089313809977,0.600411185101518
64.0,20.501172477151567,0.4523685701014433,0.011811887082057363,10.921606121735104,0.6004208191678727
65.0,20.504776526873094,0.45254540870468957,0.011804113237549027,10.92112306563472,0.6004304405643961
66.0,20.508379355726802,0.45272221399329077,0.011796343649651448,10.920640145580874,0.6004400196141975
67.0,20.511980963367982,0.4528989858903559,0.011788578317048095,10.920157361645526,0.6004497295982228
68.0,20.51558134945268,0.45307572431907706,0.011780817238415661,10.919674713900557,0.6004594915581958
69.0,20.519180513637654,0.4532524292027115,0.011773060412424452,10.91919220241776,0.6004693078610533
70.0,20.522778455580372,0.4534291004646082,0.011765307837738487,10.918709827268845,0.6004789962633755
71.0,20.526375174939055,0.45360573802818765,0.01175755951301596,10.91822758852544,0.600488141909863
72.0,20.529970671372652,0.4537823418169474,0.011749815436909254,10.917745486259085,0.6004967927906468
73.0,20.533564944540824,0.4539589117544674,0.01174207560806509,10.917263520541235,0.6005053383369233
74.0,20.537157994103964,0.45413544776440257,0.01173434002512469,10.916781691443264,0.6005139124998383
75.0,20.54074981972322,0.4543119497704898,0.01172660868672387,10.91629999903646,0.60052155856552
76.0,20.544340421060436,0.45448841769654,0.011718881591492931,10.915818443392023,0.6005286133069875
77.0,20.547929797778206,0.45466485146645264,0.01171115873805696,10.915337024581072,0.6005373640624504
78.0,20.551517949539853,0.45484125100419454,0.01170344012503554,10.914855742674643,0.600545688462428
79.0,20.555104876009427,0.4550176162338199,0.011695725751042977,10.914374597743677,0.6005537937727895
80.0,20.55869057685172,0.45519394707945954,0.011688015614688121,10.913893589859043,0.6005618584133167
81.0,20.56227505173224,0.45537024346532357,0.011680309714574472,10.913412719091514,0.6005699787778616
82.0,20.56585830031725,0.45554650531570173,0.011672608049299978,10.912931985511785,0.600578055311845
83.0,20.569440322273714,0.45572273255496615,0.011664910617457159,10.912451389190458,0.6005861214940648
84.0,20.573021117269377,0.4558989251075611,0.011657217417632875,10.91197093019806,0.6005941916103771
85.0,20.576600684972682,0.45607508289802484,0.0116495284484084,10.911490608605021,0.6006023338142906
86.0,20.580179025052814,0.45625120585096485,0.011641843708359217,10.911010424481693,0.6006105160680929
87.0,20.58375613717971,0.45642729389106934,0.011634163196055109,10.91053037789834,0.6006185866894728
88.0,20.587332021024018,0.4566033469431135,0.011626486910059927,10.910050468925139,0.6006267844261366
89.0,20.59090667625714,0.4567793649319462,0.011618814848931689,10.909570697632178,0.6006354018207122
90.0,20.594480102551223,0.45695534778249974,0.01161114701122222,10.909091064089466,0.6006444271333772
91.0,20.598052299579113,0.4571312954197926,0.011603483395477428,10.908611568366922,0.6006538881716993
92.0,20.60162326701445,0.457307207768916,0.011595824000236916,10.908132210534378,0.6006635282497254
93.0,20.605193004531568,0.45748308475504507,0.011588168824034179,10.907652990661578,0.6006732708148262
94.0,20.60876151180555,0.45765892630344035,0.011580517865396229,10.907173908818184,0.6006834867109595
95.0,20.612328788512244,0.4578347323394379,0.011572871118515536,10.906694965073783,0.6006932487180751
96.0,20.615894834328195,0.45801050278846084,0.011565228578689623,10.906216159497896,0.60070271528672
97.0,20.61945964893073,0.45818623757600746,0.011557590244537348,10.90573749215995,0.6007121632221889
98.0,20.62302323199788,0.45836193662766284,0.011549956114679325,10.905258963129288,0.6007217696293415
99.0,20.62658558320845,0.45853759986909476,0.011542326187738169,10.904780572475158,0.6007314834870873
100.0,20.630146702241966,0.45871322722605296,0.011534700462338142,10.904302320266726,0.6007412137081163
101.0,20.633706588778704,0.45888881862436,0.011527078937105278,10.903824206573068,0.6007509414304099
102.0,20.63726524249968,0.45906437398993843,0.01151946161066717,10.903346231463166,0.6007608127149157
103.0,20.64082266308666,0.4592398932487766,0.011511848481652908,10.902868395005921,0.6007707649457217
104.0,20.644378850222136,0.4594153763269568,0.011504239548693026,10.902390697270135,0.6007806847727682
105.0,20.64793380358936,0.45959082315063515,0.011496634810419386,10.901913138324533,0.600790371735351
106.0,20.65148752287233,0.45976623364606106,0.011489034265465103,10.901435718237739,0.6007995076831073
107.0,20.65504000775578,0.45994160773955456,0.011481437912464488,10.900958437078293,0.6008081422581769
108.0,20.658591257925192,0.46011694535752895,0.011473845750052936,10.900481294914647,0.6008165106514206
109.0,20.662141273066794,0.4602922464264771,0.01146625777686689,10.90000429181516,0.6008248758169048
110.0,20.66569005286756,0.4604675108729774,0.011458673991543765,10.899527427848101,0.6008332623719612
111.0,20.66923759701522,0.46064273862368754,0.011451094392721854,10.89905070308165,0.600841525631811
112.0,20.672783905198227,0.46081792960535334,0.011443518979040232,10.898574117583898,0.6008497229158379
113.0,20.676328977105804,0.4609930837448008,0.011435947749138855,10.898097671422846,0.6008578458060821
114.0,20.679872812427913,0.46116820096894195,0.011428380701658362,10.8976213646664,0.600865874305009
115.0,20.683415410855268,0.46134328120477147,0.011420817835240094,10.89714519738238,0.6008739125206689
116.0,20.686956772079334,0.46151832437936974,0.011413259148525949,10.896669169638516,0.6008818629370246
117.0,20.690496895792307,0.46169333041990107,0.01140570464015855,10.896193281502445,0.6008897350749921
118.0,20.694035781687163,0.4618682992536132,0.011398154308781048,10.89571753304171,0.6008976418856061
119.0,20.6975734294576,0.4620432308078401,0.01139060815303713,10.89524192432377,0.60090571826983
120.0,20.70110983879808,0.46221812500999865,0.01138306617157107,10.894766455415988,0.6009139222781249
121.0,20.704645009403816,0.46239298178759086,0.011375528363027677,10.894291126385637,0.6009221704023264
122.0,20.708178940970768,0.4625678010682064,0.011367994726052214,10.8938159372999,0.6009307758557082
123.0,20.711711633195655,0.46274258277951513,0.01136046525929063,10.893340888225865,0.600939243079428
124.0,20.715243085775935,0.4629173268492794,0.011352939961389285,10.89286597923053,0.6009475688704667
125.0,20.718773298409822,0.46309203320533654,0.011345418830995192,10.892391210380804,0.6009560007517343
126.0,20.722302270796295,0.46326670177561713,0.011337901866755975,10.891916581743502,0.600964490584177
127.0,20.725830002635078,0.4634413324881348,0.011330389067072403,10.891442093385345,0.6009729385422219
128.0,20.72935649362664,0.4636159252709859,0.011322880428994646,10.890967745372976,0.6009813452870912
129.0,20.732881743472223,0.4637904800523646,0.011315375951017987,10.890493537772942,0.6009900633117978
130.0,20.736405751873804,0.4639649967605337,0.01130787563031558,10.890019470651719,0.6009987778698477
131.0,20.73992851853412,0.4641394753238559,0.01130037946575865,10.88954554407569,0.6010076582020877
132.0,20.743450043156685,0.46431391567076896,0.011292887456221614,10.889071758111136,0.601016488538495
133.0,20.74697032544573,0.464488317729806,0.011285399600295965,10.888598112824248,0.601025252451603
134.0,20.75048936510627,0.46466268142957795,0.011277915893281665,10.888124608281107,0.6010338516825814
135.0,20.754007161844065,0.4648370066987946,0.011270436334093012,10.887651244547696,0.6010422738229559
136.0,20.757523715365643,0.4650112934662431,0.011262960920020347,10.88717802168981,0.6010505991450036
137.0,20.76103902537826,0.46518554166079257,0.011255489614674355,10.886704939771143,0.6010589905407675
138.0,20.764553091589974,0.4653597512114147,0.0112480224528003,10.8862319988574,0.6010674154806692
139.0,20.768065913709552,0.4655339220471495,0.011240559432777582,10.885759199014194,0.6010743317752766
140.0,20.771577491446553,0.4657080540971421,0.011233100550318847,10.885286540307044,0.601080854902778
141.0,20.775087824511278,0.46588214729060823,0.011225645770296363,10.884814022799784,0.6010876709483252
142.0,20.778596912614795,0.4660562015568664,0.011218195078145357,10.884341646555491,0.6010944878881774
143.0,20.78210475546891,0.46623021682530635,0.011210748517795981,10.88386941163937,0.6011012525529584
144.0,20.785611352786212,0.46640419302542124,0.0112033060893345,10.883397318116582,0.6011079483448688
145.0,20.789116704280033,0.4665781300867782,0.011195867791848018,10.88292536605219,0.601114612170248
146.0,20.792620809664477,0.4667520279390401,0.011188433624430012,10.882453555511162,0.601121684719257
147.0,20.79612366865439,0.4669258865119587,0.01118100358617989,10.881981886558366,0.6011287813619978
148.0,20.7996252809654,0.46709970573536713,0.011173577669822675,10.881510359258545,0.6011362950742863
149.0,20.803125646313884,0.4672734855391923,0.011166155838513854,10.88103897367518,0.601143971050747
150.0,20.806624764416988,0.46744722585344395,0.011158738115973024,10.880567729872586,0.6011516181192867
151.0,20.810122634992613,0.4676209266082237,0.011151324506884358,10.880096627915208,0.6011591468200947
152.0,20.813619257759427,0.46779458773372595,0.011143915010543664,10.87962566786738,0.6011665716603808
153.0,20.81711463243686,0.46796820916022175,0.01113650961696515,10.879154849792974,0.6011740004274067
154.0,20.820608758745102,0.46814179081808227,0.01112910830383234,10.878684173754902,0.6011815832796279
155.0,20.824101636405107,0.46831533263776093,0.01112171110105516,10.878213639817226,0.6011893056373008
156.0,20.82759326513859,0.4684888345498053,0.01111431800801431,10.877743248043902,0.6011974125931655
157.0,20.83108364466804,0.46866229648484187,0.01110692902410224,10.877272998498794,0.6012055997182938
158.0,20.834572774716694,0.46883571837359606,0.011099544148722506,10.876802891245665,0.6012133828476464
159.0,20.83806065500856,0.46900910014688035,0.011092163381288975,10.876332926348182,0.6012207124025692
160.0,20.841547285268433,0.46918244173559254,0.011084786721225296,10.875863103869907,0.6012276292195081
161.0,20.845032665221822,0.46935574307072175,0.011077414167964114,10.87539342387431,0.6012344518818044
162.0,20.848516794595042,0.46952900408334997,0.011070045720946588,10.874923886424762,0.6012424828556631
163.0,20.85199967311517,0.4697022247046438,0.011062681363388298,10.874454491584622,0.6012503557702681
164.0,20.855481300510036,0.4698754048658584,0.01105532109545539,10.873985239417143,0.6012589561628656
165.0,20.85896167650823,0.4700485444983486,0.011047964931959023,10.873516129985392,0.6012675899145618
166.0,20.86244080083914,0.4702216435335453,0.011040612869374359,10.873047163352133,0.6012760429595583
167.0,20.865918673232883,0.47039470190298305,0.011033264877488087,10.872578339578093,0.6012841921582678
168.0,20.869395293420364,0.47056771953827425,0.011025920988547008,10.872109658726067,0.6012921285003966
169.0,20.872870661133245,0.470740696371126,0.011018581202066755,10.871641120858758,0.6012998541010639
170.0,20.876344776103963,0.47091363233333755,0.01101124551756561,10.871172726038761,0.6013073824263098
171.0,20.879817638065706,0.4710865273567986,0.011003913934563897,10.87070447432858,0.6013147984940622
172.0,20.883289246752458,0.47125938137348594,0.010996586452583293,10.870236365790616,0.6013225546540412
173.0,20.88675960189895,0.47143219431547156,0.01098926307114621,10.869768400487171,0.6013301767133232
174.0,20.890228703240684,0.4716049661149104,0.010981943789775144,10.869300578480454,0.6013375528967361
175.0,20.893696550513937,0.4717776967040608,0.010974628607991916,10.868832899832567,0.601344641149952
176.0,20.897163143455746,0.47195038601525896,0.010967317525317197,10.868365364605518,0.6013516565344404
177.0,20.90062848180392,0.472123033980937,0.010960010541269568,10.867897972861215,0.6013589506918698
178.0,20.904092565297052,0.4722956405336181,0.010952707655365079,10.867430724661466,0.601366877028774
179.0,20.907555393674482,0.47246820560592157,0.010945408858838747,10.866963620067738,0.601374872999555
180.0,20.911016966676335,0.4726407291305432,0.0109381141385036,10.866496659141033,0.601382692424216
181.0,20.9144772840435,0.47281321104028956,0.010930823508170946,10.866029841942769,0.6013903684619023
182.0,20.91793634551763,0.47298565126804615,0.010923536954180704,10.865563168534035,0.6013980775086896
183.0,20.921394150841174,0.473158049746792,0.010916254494932186,10.865096638976114,0.6014057318620641
184.0,20.924850699757314,0.4733304064095943,0.01090897612995921,10.864630253330187,0.6014132936327196
185.0,20.92830599201004,0.47350272118962317,0.01090170185878803,10.864164011657333,0.6014207050459159
186.0,20.931760027344083,0.4736749940201295,0.010894431680936343,10.863697914018532,0.6014279599769247
187.0,20.93521280550497,0.4738472248344629,0.010887165595912398,10.863231960474662,0.6014347037215494
188.0,20.93866432623898,0.47401941356605765,0.010879903599392513,10.862766151086483,0.6014395270624748
189.0,20.942114589293176,0.4741915601484464,0.010872645669102407,10.862300485914538,0.6014480627589721
190.0,20.94556359441539,0.47436366451525364,0.010865391828728112,10.861834965019373,0.6014557893539346
191.0,20.949011341354215,0.4745357266001924,0.01085814207774566,10.861369588461429,0.6014635679308215
192.0,20.95245782985904,0.4747077463370642,0.01085089641561697,10.860904356301042,0.6014709969289805
193.0,20.955903059679994,0.4748797236597771,0.01084365483724551,10.860439268598487,0.6014772067607411
