k,PSNR,SSIM,mse,Log-Gradient,Angle
0.0,20.268572371895534,0.44101515210995706,0.0,10.952726803612858,0.5969899719334794
1.0,20.271700929990033,0.4411655684988444,0.010276712083325772,10.952305854410422,0.5998332938384817
2.0,20.275357156319718,0.4413430466008231,0.012175576145257399,10.951817450432568,0.5998355731762945
3.0,20.27903633056986,0.4415217871758063,0.012284664114388595,10.95132610504212,0.5998390895748623
4.0,20.282717154846583,0.4417006505008721,0.012292597953671372,10.950834509742885,0.599845958332253
5.0,20.286397938056805,0.4418795439729977,0.01229008852962495,10.950342884891349,0.5998536316773465
6.0,20.2900784649087,0.4420584554242337,0.01228585211000879,10.94985126194704,0.59986289594506
7.0,20.29375869005305,0.44223738219183306,0.012281164007626211,10.949359647918984,0.5998729417459431
8.0,20.297438598513004,0.44241632343982046,0.01227629144551161,10.948868045482795,0.599883292160089
9.0,20.301118185270127,0.4425952788112717,0.012271317829238335,10.948376456147475,0.5998936134679927
10.0,20.30479744789431,0.4427742481074202,0.012266292809723554,10.94788488057789,0.599903637598118
11.0,20.3084763853594,0.4429532312188554,0.012261245175047309,10.947393319158609,0.5999136324097167
12.0,20.31215499688787,0.44313222805095753,0.012256185938898208,10.946901772151454,0.5999236645871641
13.0,20.31583328179611,0.4433112385228038,0.012251117925512327,10.94641023974118,0.599933584532229
14.0,20.319511239473925,0.4434902625597599,0.012246042088992723,10.945918722108797,0.5999435573569656
15.0,20.323188869356215,0.4436693000910215,0.012240963822568887,10.945427219382534,0.5999535678162732
16.0,20.326866170888316,0.4438483510469027,0.012235880404627246,10.944935731695015,0.5999635362234998
17.0,20.330543143522824,0.44402741535850443,0.01223079649517818,10.944444259136528,0.5999734850918726
18.0,20.3342197867175,0.44420649295747694,0.01222571031000271,10.94395280179256,0.5999836711244563
19.0,20.33789609993368,0.44438558377586346,0.012220624896340173,10.943461359747042,0.5999938993092032
20.0,20.341572082635277,0.4445646877459743,0.012215538133929442,10.942969933094725,0.6000041272482913
21.0,20.345247734288094,0.4447438048003099,0.012210450896567016,10.942478521909942,0.6000143063843631
22.0,20.34892305435918,0.4449229348715112,0.012205363140906781,10.941987126269968,0.6000245560304958
23.0,20.352598042316536,0.44510207789230155,0.01220027660735475,10.94149574624804,0.6000348447007533
24.0,20.35627269762881,0.4452812337954688,0.012195191321721123,10.941004381916606,0.6000452257792334
25.0,20.3599470197651,0.4454604025138427,0.012190107123749112,10.940513033350005,0.600055639560013
26.0,20.36362100819478,0.4456395839802633,0.01218502306333596,10.94002170062249,0.6000659750178491
27.0,20.367294662387426,0.445818778127589,0.012179939779428045,10.939530383804609,0.60007621944874
28.0,20.3709679818127,0.44599798488867265,0.012174857724608185,10.939039082966996,0.6000864346223171
29.0,20.37464096594029,0.4461772041963621,0.012169776905187966,10.938547798180087,0.600096705618871
30.0,20.37831361423987,0.4463564359834849,0.012164697325665278,10.938056529514151,0.6001069317139852
31.0,20.38198592618106,0.4465356801828602,0.01215961898910794,10.937565277039344,0.6001170371698551
32.0,20.385657901233373,0.4467149367272781,0.012154541897447642,10.93707404082573,0.6001270440856489
33.0,20.389329538866207,0.4468942055495128,0.012149466051706958,10.936582820943311,0.6001369813122239
34.0,20.393000838548847,0.44707348658230756,0.012144391132593977,10.9360916174587,0.6001468598994896
35.0,20.39667179975041,0.4472527797583763,0.012139316887855104,10.935600430444994,0.600156650425563
36.0,20.400342421939868,0.4474320850104194,0.012134243862101128,10.935109259972005,0.6001663545428729
37.0,20.404012704586027,0.4476114022710847,0.012129170964792064,10.934618106112742,0.6001759232685447
38.0,20.407682647157518,0.44779073147300963,0.01212409906046642,10.934126968937834,0.6001854207747229
39.0,20.411352249122785,0.44797007254879473,0.012119027569219341,10.933635848526462,0.6001948844955898
40.0,20.41502150995013,0.44814942543100994,0.01211395698665234,10.93314474495066,0.6002042963036003
41.0,20.418690429107645,0.4483287900521913,0.01210888729320418,10.932653658281751,0.6002136020437708
42.0,20.42235900606326,0.44850816634485363,0.012103818819993863,10.932162588589163,0.6002227860769488
43.0,20.42602724028468,0.44868755424146195,0.012098751567512774,10.931671535942343,0.6002318754894495
44.0,20.42969513123946,0.44886695367446855,0.01209368553613864,10.931180500410752,0.6002408508368259
45.0,20.433362678394914,0.44904636457627983,0.012088620726151552,10.930689482063883,0.6002496815832404
46.0,20.437029881218216,0.44922578687928133,0.01208355713774775,10.930198480971246,0.6002584355203742
47.0,20.440696739176293,0.4494052205158165,0.012078494771050986,10.929707497202378,0.6002671796590996
48.0,20.444363251735915,0.44958466541820336,0.012073433626122218,10.929216530826846,0.6002760863520739
49.0,20.448029418363625,0.4497641215187256,0.012068373565091682,10.928725581910326,0.6002850807214146
50.0,20.451695238525783,0.44994358874963775,0.01206331458444623,10.928234650518938,0.600294008459246
51.0,20.45536071168855,0.45012306704315774,0.012058256816806733,10.927743736722356,0.6003030152967116
52.0,20.45902583731788,0.4503025563314744,0.012053200262288946,10.927252840590285,0.6003119914388677
53.0,20.462690614879534,0.4504820565467429,0.012048144920980823,10.926761962192465,0.6003209269264601
54.0,20.466355043839073,0.4506615676210912,0.012043090792946116,10.926271101598665,0.6003300217841298
55.0,20.47001912366187,0.4508410894866099,0.01203803787822743,10.925780258878694,0.6003392835950984
56.0,20.473682853813095,0.4510206220753625,0.012032986108251594,10.92528943410207,0.600348629769083
57.0,20.477346233757714,0.451200165319376,0.012027935431903228,10.924798627338108,0.6003580717603688
58.0,20.481009262960516,0.4513797191506512,0.012022885969513033,10.924307838656716,0.6003676366424119
59.0,20.484671940886074,0.45155928350115443,0.012017837721227406,10.923817068127837,0.6003771418234184
60.0,20.488334266998773,0.45173885830282057,0.012012790687179883,10.923326315821448,0.6003867391071103
61.0,20.491996240762806,0.4519184434875539,0.012007744867491878,10.92283558180756,0.600396381094585
62.0,20.495657861642165,0.45209803898723216,0.012002700262273448,10.922344866156223,0.6004061368277566
63.0,20.499319129100662,0.45227764473369403,0.011997656871624188,10.921854168937521,0.6004159121873789
64.0,20.502980042601887,0.45245726065875064,0.011992614695634046,10.921363490221575,0.6004256815812226
65.0,20.50664060160926,0.45263688669418606,0.011987573734383847,10.92087283007854,0.6004354212673351
66.0,20.510300805586,0.4528165227717505,0.011982533987945975,10.920382188578609,0.6004452251310884
67.0,20.513960653995134,0.4529961688231601,0.011977495456384796,10.919891565792009,0.6004551334710055
68.0,20.517620146299492,0.45317582478010854,0.011972458139757019,10.919400961789005,0.6004651002075565
69.0,20.521279281961718,0.4533554905742527,0.011967422038112099,10.918910376639896,0.6004750536956539
70.0,20.524938060444274,0.45353516613722,0.01196238715149247,10.918419810415022,0.6004846228412049
71.0,20.5285964812094,0.453714851400611,0.011957353479933642,10.917929263184753,0.6004935476338621
72.0,20.532254543719176,0.45389454629599374,0.011952321023464654,10.917438735019498,0.6005022656312748
73.0,20.535912247435476,0.4540742507549062,0.011947289782107963,10.916948225989705,0.6005109892396309
74.0,20.539569591819994,0.45425396470885876,0.011942259755879498,10.916457736165853,0.6005194883986936
75.0,20.54322657633422,0.4544336880893354,0.011937230944789084,10.915967265618459,0.6005256564793174
76.0,20.54688320043947,0.4546134208277756,0.011932203348840032,10.91547681441808,0.6005349385998003
77.0,20.550539463596863,0.45479316285560695,0.011927176968029514,10.914986382635302,0.6005435159730975
78.0,20.554195365267333,0.45497291410421953,0.01192215180234834,10.914495970340756,0.6005518191640994
79.0,20.557850904911632,0.45515267450497604,0.011917127851781093,10.914005577605101,0.6005600329038324
80.0,20.56150608199031,0.45533244398920525,0.011912105116305992,10.913515204499037,0.6005683076513868
81.0,20.565160895963743,0.4555122224882167,0.011907083595894916,10.913024851093297,0.6005765655673881
82.0,20.56881534629212,0.45569200993327946,0.011902063290513331,10.912534517458655,0.6005847985045393
83.0,20.57246943243544,0.4558718062556422,0.011897044200120221,10.912044203665916,0.60059301704997
84.0,20.576123153853516,0.45605161138652717,0.011892026324668068,10.91155390978592,0.6006013242381195
85.0,20.57977651000598,0.45623142525711957,0.011887009664102652,10.911063635889553,0.6006096929453538
86.0,20.58342950035229,0.45641124779857956,0.011881994218363142,10.910573382047723,0.600617943485676
87.0,20.587082124351696,0.45659107894203976,0.011876979987381913,10.910083148331385,0.6006262962058518
88.0,20.590734381463285,0.4567709186186095,0.011871966971084403,10.909592934811522,0.6006350909356905
89.0,20.594386271145954,0.45695076675935703,0.011866955169389232,10.909102741559158,0.6006443094526566
90.0,20.598037792858428,0.4571306232953382,0.011861944582207866,10.908612568645353,0.6006539862684676
91.0,20.60168894605922,0.4573104881575702,0.011856935209444728,10.9081224161412,0.6006638504377577
92.0,20.6053397302067,0.45749036127704684,0.011851927050996976,10.907632284117827,0.6006738606176483
93.0,20.608990144759034,0.4576702425847334,0.011846920106754519,10.907142172646402,0.6006843107789166
94.0,20.612640189174215,0.4578501320115685,0.011841914373060194,10.906652081798141,0.6006942695055087
95.0,20.61628986291005,0.4580300294884662,0.011836909845610637,10.906162011644312,0.6007039542828366
96.0,20.619939165424185,0.4582099349463041,0.011831906524382445,10.905671962256221,0.6007136367742165
97.0,20.62358809617407,0.4583898483159438,0.011826904409353486,10.905181933705203,0.6007235047840647
98.0,20.62723665461697,0.45856976952821166,0.011821903500502788,10.904691926062629,0.6007334815317236
99.0,20.63088484021,0.4587496985139115,0.011816903797810408,10.90420193939991,0.6007434517492238
100.0,20.63453265241007,0.45892963520382213,0.011811905301257412,10.903711973788482,0.600753440244428
101.0,20.63818009067393,0.4591095795286923,0.011806908010825682,10.90322202929982,0.6007636097464985
102.0,20.64182715445815,0.45928953141924406,0.011801911926497984,10.902732106005434,0.6007738147010419
103.0,20.64547384321912,0.45946949080617455,0.011796917048257713,10.902242203976863,0.6007839567617969
104.0,20.649120156413055,0.4596494576201535,0.011791923376088908,10.901752323285685,0.6007937277810694
105.0,20.652766093496,0.4598294317918244,0.011786930909976083,10.901262464003509,0.6008028918323463
106.0,20.656411653923826,0.4600094132518069,0.011781939649904268,10.900772626201976,0.600811574652557
107.0,20.660056837152226,0.46018940193070246,0.011776949595858763,10.900282809952763,0.6008201783146953
108.0,20.66370164263673,0.460369397759064,0.011771960747825192,10.899793015327582,0.6008287955644377
109.0,20.667346069832675,0.4605494006674424,0.011766973105789336,10.899303242398176,0.6008373522350091
110.0,20.670990118195242,0.4607294105863475,0.011761986669737214,10.898813491236321,0.6008457990212689
111.0,20.674633787179445,0.46090942744627394,0.011757001439654774,10.89832376191383,0.6008542059112386
112.0,20.678277076240107,0.461089451177686,0.011752017415528044,10.897834054502543,0.600862476556595
113.0,20.681919984831897,0.461269481711025,0.011747034597342993,10.89734436907434,0.6008707409272075
114.0,20.68556251240931,0.46144951897670733,0.01174205298508552,10.896854705701129,0.6008789815983537
115.0,20.68920465842666,0.4616295629051191,0.011737072578741299,10.896365064454855,0.6008871068037659
116.0,20.692846422338114,0.4618096134266297,0.011732093378295911,10.895875445407492,0.600895239332997
117.0,20.696487803597662,0.4619896704715776,0.01172711538373469,10.89538584863105,0.6009034502535094
118.0,20.7001288016591,0.4621697339702792,0.011722138595042748,10.894896274197574,0.6009119133468529
119.0,20.703769415976105,0.46234980385302965,0.011717163012204976,10.894406722179136,0.6009204124614188
120.0,20.707409646002148,0.46252988005009427,0.011712188635205959,10.893917192647843,0.600929233810746
121.0,20.711049491190536,0.4627099624917175,0.011707215464030085,10.893427685675837,0.6009380014453607
122.0,20.714688950994436,0.4628900511081199,0.011702243498661499,10.892938201335289,0.6009466029481902
123.0,20.71832802486684,0.46307014582949685,0.011697272739084075,10.892448739698406,0.6009553085141744
124.0,20.721966712260542,0.4632502465860225,0.011692303185281564,10.891959300837424,0.6009640756747353
125.0,20.725605012628222,0.46343035330784194,0.011687334837237514,10.891469884824614,0.6009728021702229
126.0,20.729242925422355,0.4636104659250801,0.011682367692987174,10.890980491732291,0.6009815024910601
127.0,20.732880450095283,0.463790584367842,0.011677401752547745,10.890491121632795,0.600990499892681
128.0,20.73651758609916,0.4639707085662015,0.01167243701413627,10.89000177459853,0.6009995254328871
129.0,20.740154332886,0.46415083845022015,0.011667473477965913,10.889512450701918,0.6010086863508105
130.0,20.743790689907648,0.46433097394992395,0.01166251114425276,10.889023150015422,0.6010178218988544
131.0,20.747426656615765,0.4645111149953241,0.011657550013215197,10.888533872611525,0.6010268531486664
132.0,20.751062232461884,0.46469126151640855,0.011652590081999644,10.888044618562734,0.6010356996510423
133.0,20.75469741689737,0.46487141344314115,0.01164763134995924,10.887555387941578,0.6010443774738464
134.0,20.7583322093734,0.46505157070546144,0.011642673817352798,10.887066180820618,0.6010529826724113
135.0,20.761966609341034,0.46523173323328987,0.011637717482805635,10.886576997272336,0.6010617454315622
136.0,20.76560061625115,0.46541190095652096,0.011632762313278332,10.886087837367212,0.6010700346407021
137.0,20.769234229554463,0.4655920738050318,0.011627808342554178,10.885598701177901,0.6010767263409672
138.0,20.77286744870154,0.4657722517086733,0.011622855567242555,10.885109588777095,0.60108368527709
139.0,20.77650027314278,0.4659524345972801,0.01161790398766775,10.88462050023751,0.6010907579200914
140.0,20.78013270232844,0.466132622400655,0.011612953564316648,10.8841314356299,0.6010978251973645
141.0,20.7837647357086,0.46631281504858607,0.011608004297588952,10.883642395025054,0.6011048190299751
142.0,20.78739637273321,0.4664930124708448,0.011603056225757802,10.883153378495793,0.6011116779429081
143.0,20.79102761285203,0.4666732145971693,0.011598109349241353,10.882664386114975,0.6011189488624901
144.0,20.794658455514686,0.46685342135728436,0.011593163668463828,10.882175417955482,0.6011262570319101
145.0,20.79828890017065,0.4670336326808926,0.01158821918299029,10.88168647409022,0.6011338553081926
146.0,20.80191894626923,0.46721384849767666,0.01158327588550755,10.881197554592088,0.6011418639051165
147.0,20.8055485932596,0.4673940687372897,0.011578333772072985,10.880708659533859,0.6011497970417822
148.0,20.809177840590756,0.4675742933293802,0.011573392809575648,10.88021978898722,0.6011576423986026
149.0,20.81280668771157,0.4677545222035601,0.011568453032407033,10.879730943025153,0.6011653641957561
150.0,20.816435134070737,0.4679347552894277,0.011563514441196595,10.87924212172066,0.601173057444895
151.0,20.820063179116822,0.4681149925165635,0.011558577036588365,10.87875332514677,0.6011809438224206
152.0,20.82369082229823,0.46829523381452237,0.011553640793366455,10.878264553375445,0.6011890181061503
153.0,20.827318063063206,0.4684754791128429,0.011548705724626828,10.877775806479221,0.6011974357505488
154.0,20.83094490085987,0.4686557283410459,0.01154377184409108,10.877287084531226,0.6012059506955781
155.0,20.834571335136168,0.46883598142862065,0.011538839152487046,10.876798387604607,0.6012140052997906
156.0,20.838197365339916,0.469016238305052,0.011533907650554051,10.876309715772548,0.6012215772496844
157.0,20.841822990918782,0.46919649889979326,0.011528977339042212,10.875821069108252,0.6012287446120276
158.0,20.845448211320267,0.46937676314228466,0.011524048218711893,10.875332447684954,0.6012361019092961
159.0,20.849073025991743,0.4695570309619462,0.011519120290332842,10.874843851575912,0.6012444383123356
160.0,20.85269743438043,0.4697373022881764,0.01151419355468364,10.874355280854417,0.6012526202593503
161.0,20.856321435933403,0.46991757705035614,0.01150926801228739,10.87386673559378,0.6012616796508705
162.0,20.859945030097595,0.47009785517784874,0.011504343633225675,10.873378215867527,0.6012706133478692
163.0,20.863568216319788,0.4702781365999939,0.01149942044908176,10.872889721749017,0.6012792923460718
164.0,20.867190994046627,0.4704584212461156,0.01149449846009806,10.8724012533116,0.6012876925600983
165.0,20.870813362724604,0.4706387090455233,0.011489577632855142,10.871912810626272,0.6012958534140393
166.0,20.874435321800075,0.47081899992750215,0.01148465800298317,10.871424393766501,0.6013037917097628
167.0,20.87805687071925,0.4709992938213226,0.011479739571337117,10.870936002805784,0.6013116776175224
168.0,20.881678008928194,0.47117959065623166,0.011474822338774912,10.870447637817643,0.6013197894929406
169.0,20.88529873587284,0.47135989036145826,0.011469906306156729,10.869959298875626,0.6013278347957862
170.0,20.888919050998965,0.47154019286622445,0.011464991474344354,10.869470986053313,0.6013356447268469
171.0,20.892538953752215,0.4717204980997232,0.011460077844200453,10.868982699424304,0.601343113498629
172.0,20.896158443578102,0.47190080599113227,0.011455165416587991,10.868494439062234,0.6013504275534981
173.0,20.89977751992198,0.4720811164696157,0.011450254192369442,10.868006205040759,0.60135799849847
174.0,20.903396182229088,0.4722614294643133,0.011445344172406158,10.867517997433565,0.6013662439703197
175.0,20.907014429944503,0.47244174490435326,0.011440435357557652,10.867029816314362,0.6013746078050418
176.0,20.91063226251318,0.4726220627188466,0.011435527748680946,10.866541661756893,0.6013827940318393
177.0,20.914249679379928,0.47280238283688086,0.011430621319774568,10.866053533834098,0.6013908642988152
178.0,20.91786667998943,0.47298270518753416,0.011425716095781423,10.865565432619691,0.6013989134175715
179.0,20.92148326378622,0.47316302969986673,0.011420812064744884,10.865077358187246,0.6014068953714472
180.0,20.925099430214708,0.47334335630291324,0.011415909231108589,10.864589310610398,0.601414769830874
181.0,20.928715178719163,0.4735236849257039,0.011411007606705494,10.864101289962985,0.6014224971272022
182.0,20.93233050874371,0.4737040154972456,0.011406107192418235,10.863613296318873,0.6014300019088962
183.0,20.93594541973236,0.47388434794653134,0.011401207989121757,10.86312532975195,0.6014366631290843
184.0,20.939559911128967,0.4740646822025336,0.0113963099976823,10.86263739033613,0.6014427505915375
185.0,20.943173982377278,0.47424501819421844,0.011391413218956509,10.862149478145353,0.6014512067544829
186.0,20.946787632920888,0.4744253558505236,0.011386517626705284,10.86166159325345,0.601459443531825
187.0,20.95040086220326,0.47460569510037814,0.011381623245162,10.861173735734367,0.6014675828966068
188.0,20.954013669667727,0.4747860358726958,0.011376730077476277,10.860685905662086,0.6014746724011165
189.0,20.9576260547575,0.47496637809637726,0.011371838117096902,10.860198103110669,0.6014808870065861
190.0,20.96123801691565,0.4751467217002962,0.011366947362345933,10.859710328154227,0.60148743904757
191.0,20.964849555585126,0.47532706661332275,0.011362057814051009,10.85922258086689,0.6014944474982347
192.0,20.968460670208735,0.47550741276430797,0.011357169473031092,10.858734861322809,0.6015016334202807
193.0,20.972071360229165,0.4756877600820855,0.011352282340095568,10.85824716959616,0.6015088965063117
