k,PSNR,SSIM,mse,Log-Gradient,Angle
0.0,20.268572371895534,0.44101515210995706,0.0,10.952726803612858,0.5969899719334794
1.0,20.271700835208396,0.4411655639415432,0.010276400781008698,10.952305867164016,0.5998332935321882
2.0,20.27535685597259,0.44134303210657916,0.012174900008266102,10.951817490741577,0.5998355724227072
3.0,20.279035713157647,0.4415217573237979,0.012283617294840593,10.95132618780304,0.5998390875429456
4.0,20.282716108804845,0.4417005998639465,0.012291179499386908,10.950834649864456,0.5998459545962124
5.0,20.286396351806797,0.4418794671204582,0.012288298486081572,10.950343097287925,0.5998536268926445
6.0,20.290076226863828,0.44205834692219853,0.012283690722349633,10.94985156153763,0.5998628894850937
7.0,20.29375568862029,0.4422372366033376,0.012278631566392377,10.949360049627018,0.5998729331900939
8.0,20.297434722093435,0.44241613532484053,0.012273388255324952,10.948868564236044,0.5998832812021169
9.0,20.30111332225917,0.4425950427267414,0.012268044200908037,10.948377106877983,0.5998935995151429
10.0,20.30479148668192,0.442773958607265,0.012262649057459002,10.947885678221937,0.5999036202927801
11.0,20.30846921433016,0.4429528828539848,0.012257231615947151,10.947394278656697,0.5999136116678584
12.0,20.312146504421115,0.44313181536930024,0.012251802891427589,10.946902908448282,0.5999236400951604
13.0,20.315823356266023,0.44331075606929904,0.012246365708104247,10.94641156778563,0.5999335557745329
14.0,20.319499769249685,0.44348970487637907,0.012240921020721298,10.945920256853919,0.5999435245509036
15.0,20.32317574280207,0.44366866171677505,0.01223547422262459,10.945428975785532,0.5999535306207265
16.0,20.32685127636368,0.4438476265178605,0.012230022592260515,10.944937724717233,0.5999634938262899
17.0,20.330526369382437,0.44402659920780124,0.012224570790006634,10.944446503743437,0.5999734395656602
18.0,20.33420102131146,0.4442055797153277,0.012219117031449817,10.943955312953747,0.5999836202530884
19.0,20.337875231607615,0.44438456796957143,0.012213664364290088,10.943464152436196,0.5999938428753052
20.0,20.341548999730428,0.44456356389993995,0.012208210667697726,10.942973022289628,0.6000040655059543
21.0,20.3452223251414,0.44474256743605384,0.012202756815407806,10.942481922592455,0.6000142386428843
22.0,20.348895207303418,0.4449215785076724,0.0121973027646305,10.941990853426018,0.6000244813067398
23.0,20.352567645680413,0.44510059704466104,0.012191850255807346,10.941499814867612,0.6000347626734411
24.0,20.356239639737062,0.4452796229769587,0.012186399314692203,10.941008806993723,0.6000451359262178
25.0,20.35991118893861,0.44545865623454245,0.012180949780869199,10.94051782988273,0.6000555426335924
26.0,20.363582292750692,0.44563769674744264,0.012175500703744653,10.940026883612903,0.6000658712752538
27.0,20.36725295063922,0.44581674444568825,0.012170052722618232,10.939535968258799,0.6000761081941036
28.0,20.37092316207034,0.44599579925933447,0.012164606290127642,10.939045083895051,0.600086314972085
29.0,20.37459292651031,0.4461748611184356,0.012159161412524547,10.938554230596077,0.6000965764402223
30.0,20.378262243425475,0.44635392995304035,0.012153718094246762,10.938063408436125,0.6001067945438848
31.0,20.381931112282242,0.44653300569319837,0.01214827633830173,10.937572617489309,0.6001168923568708
32.0,20.385599532547015,0.4467120882689459,0.01214283614656061,10.937081857829645,0.6001268903512106
33.0,20.389267503686213,0.44689117761030867,0.012137397519985264,10.936591129531074,0.6001368184116816
34.0,20.392935025166217,0.44707027364729707,0.012131960138685595,10.936100432664142,0.6001466869530413
35.0,20.39660209645337,0.4472493763099157,0.012126523750876729,10.935609767305854,0.6001564678504306
36.0,20.40026871701396,0.4474284855281387,0.012121088901108324,10.93511913352993,0.6001661627346194
37.0,20.403934886314232,0.44760760123193516,0.01211565449674836,10.93462853141327,0.6001757232683811
38.0,20.40760060382035,0.44778672335124786,0.012110221405657953,10.934137961030384,0.6001852083893556
39.0,20.411265868998427,0.44796585181600895,0.012104789043850515,10.933647422464347,0.6001946619740552
40.0,20.414930681314516,0.44814498655612683,0.012099357909766026,10.93315691579103,0.6002040624328718
41.0,20.41859504023457,0.44832412750148926,0.012093927985162838,10.932666441085598,0.6002133601621782
42.0,20.4222589452245,0.4485032745819712,0.012088499599495529,10.932175998421304,0.6002225342604914
43.0,20.425922395750106,0.44868242772742534,0.012083072753193747,10.931685587871419,0.6002316154895594
44.0,20.42958539127712,0.44886158686768024,0.01207764744657338,10.931195209509212,0.6002405816194719
45.0,20.433247931271183,0.4490407519325526,0.01207222367985286,10.93070486340797,0.6002494037678272
46.0,20.436910015197856,0.44921992285183227,0.012066801453166734,10.93021454964099,0.6002581477328622
47.0,20.440571642522613,0.4493990995552908,0.01206138076657718,10.92972426828158,0.6002668796302283
48.0,20.444232812710833,0.4495782819726865,0.012055961620083627,10.92923401940307,0.6002757614645061
49.0,20.447893525227823,0.4497574700337496,0.012050543875927765,10.928743803074893,0.6002847461865174
50.0,20.451553779538784,0.449936663668194,0.012045127529818433,10.928253619366895,0.6002936620011478
51.0,20.45521357510883,0.4501158628057151,0.012039712714854548,10.927763468352476,0.6003026498455071
52.0,20.458872911403,0.45029506737598474,0.012034299431090847,10.927273350105052,0.6003116158946555
53.0,20.46253178788622,0.4504742773086589,0.012028887678554354,10.926783264698063,0.6003205367177494
54.0,20.466190204023363,0.45065349253337406,0.012023477457247914,10.92629321220497,0.6003296037548667
55.0,20.469848159279195,0.4508327129797464,0.012018068767153353,10.925803192699252,0.6003388473294781
56.0,20.473505653118387,0.4510119385773686,0.012012661538952592,10.925313206254092,0.6003481702528327
57.0,20.477162685005553,0.4511911692558234,0.012007255722638749,10.924823252942462,0.6003575961989295
58.0,20.48081925440519,0.4513704049446636,0.01200185143799779,10.924333332837904,0.6003671365693691
59.0,20.48447536078173,0.45154964557343286,0.011996448685115806,10.92384344601399,0.600376626846038
60.0,20.488131003599502,0.4517288910716532,0.011991047464065978,10.923353592544311,0.6003862017799365
61.0,20.491786182322777,0.45190814136882196,0.011985647774909442,10.922863772502485,0.6003958218637354
62.0,20.495440896415722,0.4520873963944237,0.011980249617696233,10.922373985962148,0.6004055544183051
63.0,20.499095145342437,0.4522666560779259,0.01197485299246588,10.921884232996964,0.6004153062168257
64.0,20.50274892856691,0.45244592034877096,0.011969457899248326,10.92139451368062,0.6004250583272128
65.0,20.50640224555307,0.4526251891363888,0.011964064338064614,10.920904828086822,0.6004347820962881
66.0,20.510055095764766,0.45280446237018873,0.011958672308927384,10.920415176289305,0.6004445586197018
67.0,20.513707478665758,0.45298373997956226,0.011953281811841278,10.919925558361827,0.6004544422080662
68.0,20.517359393719726,0.4531630218938813,0.01194789284680348,10.919435974378166,0.6004643827927717
69.0,20.521010840390264,0.45334230804250786,0.011942505413804,10.918946424412127,0.6004743239508411
70.0,20.524661818140906,0.45352159835477074,0.011937119512825905,10.918456908537536,0.6004839170229798
71.0,20.52831232643509,0.45370089276000086,0.011931735143845464,10.917967426828248,0.6004928580148042
72.0,20.531962364736174,0.45388019118749484,0.011926352306832512,10.917477979358136,0.6005015641197423
73.0,20.53561193250745,0.45405949356654,0.011920971001750439,10.916988566201098,0.6005102680741022
74.0,20.539261029212128,0.4542387998264055,0.011915591228556307,10.916499187431059,0.6005188225798407
75.0,20.542909654313327,0.4544181098963431,0.011910212987200972,10.916009843121964,0.6005247346843425
76.0,20.54655780727412,0.45459742370559025,0.01190483627762908,10.915520533347783,0.6005341568992492
77.0,20.550205487557474,0.4547767411833658,0.011899461099779154,10.915031258182507,0.6005427380719365
78.0,20.55385269462631,0.4549560622588626,0.011894087453583472,10.914542017700157,0.6005510380576055
79.0,20.557499427943448,0.4551353868612744,0.011888715338968169,10.91405281197477,0.600559238684237
80.0,20.561145686971646,0.4553147149197687,0.011883344755853186,10.91356364108041,0.6005674756802307
81.0,20.564791471173592,0.4554940463634936,0.011877975704152208,10.913074505091165,0.6005757242752124
82.0,20.568436780011897,0.4556733811215902,0.011872608183772598,10.912585404081145,0.6005839339941201
83.0,20.57208161294909,0.45585271912317826,0.011867242194615367,10.912096338124487,0.6005921179484092
84.0,20.575725969447657,0.45603206029735904,0.011861877736575143,10.911607307295343,0.6006004130274577
85.0,20.579369848969982,0.456211404573221,0.011856514809539993,10.911118311667897,0.6006087557969366
86.0,20.5830132509784,0.45639075187984207,0.011851153413391425,10.910629351316349,0.6006169867914845
87.0,20.586656174935165,0.4565701021462796,0.011845793548004335,10.91014042631493,0.6006252866820209
88.0,20.59029862030247,0.4567494553015707,0.011840435213246799,10.909651536737885,0.6006340109513687
89.0,20.593940586542423,0.4569288112747463,0.011835078408980165,10.90916268265949,0.6006431289507738
90.0,20.597582073117096,0.4571081699948181,0.01182972313505877,10.908673864154038,0.600652748465554
91.0,20.601223079488456,0.457287531390785,0.011824369391330018,10.908185081295848,0.6006625656211168
92.0,20.604863605118435,0.4574668953916258,0.011819017177634216,10.907696334159262,0.600672482277667
93.0,20.608503649468876,0.4576462619263087,0.011813666493804484,10.90720762281864,0.6006829241413792
94.0,20.612143212001573,0.45782563092379064,0.01180831733700091,10.906718947348386,0.6006929135697764
95.0,20.615782292178253,0.4580050023130098,0.011802969701998631,10.906230307822938,0.6007025847915699
96.0,20.619420889460557,0.4581843760228859,0.011797623588716999,10.905741704316757,0.6007122333362601
97.0,20.6230590033101,0.45836375198233464,0.011792278997076836,10.905253136904332,0.60072204766329
98.0,20.6266966331884,0.458543130120252,0.011786935927000076,10.904764605660162,0.6007319764050016
99.0,20.630333778556928,0.4587225103655151,0.011781594378409919,10.90427611065878,0.6007419182849919
100.0,20.6339704388771,0.45890189264700193,0.011776254351230583,10.903787651974728,0.6007518665612392
101.0,20.637606613610252,0.45908127689356176,0.011770915845387255,10.903299229682576,0.6007619710779294
102.0,20.641242302217687,0.45926066303403684,0.011765578860806057,10.902810843856912,0.6007721487650345
103.0,20.644877504160615,0.4594400509972585,0.011760243397413857,10.902322494572346,0.6007822824039067
104.0,20.64851221890021,0.4596194407120395,0.011754909455138298,10.901834181903507,0.6007921098253817
105.0,20.65214644589757,0.45979883210718614,0.0117495770339076,10.901345905925046,0.6008013394438522
106.0,20.655780184613764,0.45997822511148323,0.011744246133650507,10.900857666711634,0.600810066523325
107.0,20.659413434509773,0.4601576196537089,0.011738916754296233,10.900369464337963,0.6008186367272385
108.0,20.663046195046533,0.4603370156626287,0.011733588895774413,10.899881298878743,0.6008272143206341
109.0,20.666678465684925,0.46051641306699187,0.011728262558014915,10.899393170408706,0.6008357666094276
110.0,20.670310245885773,0.4606958117955409,0.011722937740947901,10.898905079002605,0.6008441935802984
111.0,20.673941535109847,0.4608752117770026,0.011717614444503695,10.89841702473521,0.6008525877001727
112.0,20.67757233281786,0.4610546129400892,0.01171229266861272,10.897929007681315,0.600860854485165
113.0,20.681202638470477,0.46123401521350466,0.011706972413205419,10.897441027915729,0.6008690784145517
114.0,20.6848324515283,0.46141341852593887,0.011701653678212326,10.896953085513287,0.6008773137461104
115.0,20.688461771451884,0.4615928228060735,0.011696336463563828,10.896465180548836,0.6008854220355146
116.0,20.69209059770174,0.46177222798257817,0.01169102076919034,10.89597731309725,0.6008935164466737
117.0,20.695718929738312,0.46195163398410033,0.011685706595022102,10.895489483233415,0.6009016242123547
118.0,20.699346767021996,0.46213104073929795,0.011680393940989294,10.895001691032245,0.6009100570844003
119.0,20.702974109013155,0.4623104481767965,0.011675082807021878,10.894513936568666,0.6009185072546589
120.0,20.70660095517209,0.462489856225218,0.011669773193049704,10.89402621991763,0.6009272159161219
121.0,20.710227304959044,0.46266926481318066,0.011664465099002493,10.893538541154097,0.6009359968618965
122.0,20.713853157834222,0.46284867386928097,0.011659158524809778,10.89305090035306,0.6009445927534
123.0,20.717478513257788,0.46302808332211315,0.011653853470401022,10.89256329758952,0.6009532167529839
124.0,20.72110337068985,0.46320749310025394,0.011648549935705533,10.892075732938505,0.6009619310298661
125.0,20.72472772959047,0.4633869031322763,0.011643247920652623,10.891588206475053,0.6009706566773577
126.0,20.728351589419667,0.46356631334673754,0.011637947423678652,10.891100718274236,0.6009792670318932
127.0,20.731974949637404,0.4637457236721932,0.011632648444349879,10.890613268411144,0.600988222222413
128.0,20.73559780970362,0.4639251340371753,0.011627350981144277,10.8901258569609,0.6009971611342457
129.0,20.739220169078195,0.46410454437021675,0.01162205503381525,10.889638483998652,0.6010062876127239
130.0,20.742842027220973,0.46428395459983546,0.011616760602523027,10.889151149599565,0.6010153736714591
131.0,20.74646338359175,0.4644633646545501,0.011611467687430443,10.88866385383881,0.6010244198106871
132.0,20.750084237650274,0.4646427744628537,0.01160617628647942,10.888176596791578,0.6010332804167846
133.0,20.753704588856273,0.4648221839532423,0.011600886398122566,10.887689378533059,0.6010419631794192
134.0,20.757324436669403,0.465001593054198,0.01159559802256266,10.887202199138462,0.6010505313348683
135.0,20.760943780549322,0.46518100169419746,0.011590311160007152,10.886715058683015,0.6010591869858298
136.0,20.764562619955598,0.46536040980170057,0.011585025776904373,10.8862279572399,0.6010678372711068
137.0,20.768180954347805,0.46553981730516786,0.011579741903136178,10.885740894884194,0.6010747633278682
138.0,20.771798783185442,0.4657192241330455,0.0115744595386216,10.885253871691186,0.6010815607346688
139.0,20.77541610592799,0.46589863021377304,0.011569178682941548,10.884766887736173,0.601088611477541
140.0,20.7790329220349,0.4660780354757857,0.011563899305030403,10.88427994309292,0.6010956525838493
141.0,20.782649230965553,0.4662574398475005,0.011558621390309397,10.883793037834447,0.6011026319061822
142.0,20.78626503217933,0.46643684325733575,0.011553344981165531,10.883306172036004,0.6011095001151031
143.0,20.78988032513554,0.4666162456336947,0.011548070080216358,10.882819345772969,0.6011165661126208
144.0,20.793495109293488,0.4667956469049883,0.011542796687830916,10.882332559120735,0.6011238401952942
145.0,20.797109384112428,0.4669750469995939,0.011537524804384166,10.881845812154715,0.60113125386494
146.0,20.800723149051585,0.4671544458459021,0.011532254423313425,10.881359104950294,0.601139177913062
147.0,20.804336403570147,0.4673338433722909,0.011526985543300682,10.880872437582866,0.6011470659907353
148.0,20.80794914712728,0.46751323950712625,0.011521718125505958,10.88038581012651,0.601154932423055
149.0,20.811561379182116,0.46769263417877455,0.011516452203531173,10.879899222656565,0.6011626618009739
150.0,20.815173099193743,0.46787202731558913,0.011511187780022096,10.879412675248469,0.6011702647906381
151.0,20.818784306621247,0.46805141884592255,0.01150592485556519,10.878926167977662,0.6011781099485102
152.0,20.822395000923652,0.4682308086981129,0.011500663411840696,10.878439700918804,0.6011859471593667
153.0,20.82600518155997,0.4684101968004947,0.011495403447916063,10.877953274146526,0.6011942900687817
154.0,20.829614847989184,0.46858958308140597,0.01149014498447533,10.877466887736318,0.6012027817888826
155.0,20.833223999670253,0.4687689674691587,0.011484888022189272,10.876980541763695,0.6012109876178079
156.0,20.836832636062095,0.46894834989207856,0.011479632561740153,10.876494236304175,0.601218716727499
157.0,20.840440756623607,0.4691277302784728,0.011474378603821252,10.876007971433298,0.6012259668003817
158.0,20.84404836081368,0.4693071085566452,0.011469126149136142,10.875521747226607,0.6012330373599525
159.0,20.84765544809114,0.46948648465489873,0.011463875198397942,10.875035563759663,0.6012411081102577
160.0,20.85126201791482,0.46966585850152387,0.011458625752328746,10.874549421108041,0.601249269871376
161.0,20.85486806974352,0.469845230024813,0.011453377811658805,10.874063319347327,0.6012579704338888
162.0,20.858473603036014,0.4700245991530472,0.011448131351438153,10.87357725855327,0.6012669262774352
163.0,20.862078617251058,0.4702039658145029,0.0114428863923338,10.873091238801507,0.6012756935019518
164.0,20.86568311184738,0.4703833299374552,0.011437642940674588,10.872605260167653,0.6012841516059447
165.0,20.869287086283688,0.4705626914501726,0.011432400969773061,10.872119322725444,0.6012923739317152
166.0,20.872890540018666,0.4707420502809198,0.011427160499876117,10.871633426549995,0.6013003650158976
167.0,20.876493472510983,0.4709214063579503,0.011421921539755372,10.871147571716984,0.6013081428013027
168.0,20.880095883219283,0.47110075960952386,0.011416684090213451,10.87066175830211,0.601316155007458
169.0,20.8836977716022,0.47128010996388703,0.011411448152055489,10.870175986381074,0.6013242067477322
170.0,20.887299137118326,0.4714594573492905,0.01140621372608821,10.8696902560296,0.6013320795605194
171.0,20.890899979226262,0.4716388016939654,0.011400980813119474,10.869204567323418,0.6013396732364825
172.0,20.894500297384578,0.47181814292616137,0.011395749413957533,10.868718920338274,0.6013469568044006
173.0,20.898100091051823,0.4719974809741084,0.01139051952941036,10.868233315149926,0.6013543632583717
174.0,20.90169935968655,0.4721768157660317,0.011385291160284989,10.86774775183414,0.601362117783898
175.0,20.90529810274727,0.4723561472301638,0.01138006430738667,10.867262230466702,0.6013705352073243
176.0,20.90889631969249,0.4725354752947298,0.011374838971518383,10.866776751123405,0.6013787680865473
177.0,20.912494009980716,0.47271479988794357,0.01136961513629164,10.866291313879533,0.6013868214440601
178.0,20.91609117307042,0.47289412093802596,0.011364392807229404,10.86580591881053,0.6013948606981981
179.0,20.919687808420075,0.47307343837319205,0.011359171989959659,10.865320565992114,0.6014028120099317
180.0,20.923283915488135,0.4732527521216516,0.01135395267343913,10.8648352554998,0.6014107054195822
181.0,20.926879493733047,0.47343206211161215,0.011348734876933551,10.864349987409412,0.6014184760124041
182.0,20.930474542613236,0.4736113682712806,0.011343518601271651,10.863864761796783,0.6014260812662908
183.0,20.934069061587127,0.47379067052885976,0.011338303847274588,10.863379578737757,0.6014333037573338
184.0,20.937663050113137,0.473969968812553,0.011333090615755279,10.862894438308187,0.6014389680101152
185.0,20.941256507649655,0.4741492630505571,0.011327878907517092,10.862409340583937,0.6014467831306637
186.0,20.94484943365508,0.4743285531710722,0.011322668706553053,10.861924285640804,0.6014549224070527
187.0,20.948441827587807,0.474507839102293,0.011317460016980889,10.861439273554586,0.6014630833121927
188.0,20.952033688906194,0.47468712077241076,0.011312252851668857,10.860954304401146,0.6014708954953337
189.0,20.955625017068623,0.4748663981096149,0.011307047209251376,10.86046937825637,0.6014773368552703
190.0,20.95921581153345,0.47504567104210477,0.011301843082803575,10.859984495196223,0.6014836406783665
191.0,20.96280607175904,0.4752249394980603,0.011296640473097353,10.859499655296668,0.6014903240736172
192.0,20.966395797203738,0.4754042034056735,0.011291439380896282,10.859014858633683,0.6014974104227818
193.0,20.969984987325887,0.47558346269313184,0.011286239806954713,10.858530105283249,0.6015045356439046
