k,PSNR,SSIM,mse,Log-Gradient,Angle
0.0,20.37520401439055,0.37270676760468385,0.0,10.908924819239388,0.5997680935976326
1.0,20.3783819219765,0.3728613129813925,0.010117646983490212,10.908487282686812,0.6028585957758956
2.0,20.382166661264705,0.3730477014165455,0.01223621286243631,10.907969153404245,0.6028984389524971
3.0,20.38598108267792,0.3732358613939272,0.01237266848185998,10.907447087171098,0.6029132680739756
4.0,20.3897980873362,0.37342424197188123,0.01238519287935951,10.906924640557078,0.6029181624715004
5.0,20.3936153800342,0.37361270039230865,0.01238419993035161,10.906402120262996,0.6029200445828385
6.0,20.397432602909387,0.37380121181757797,0.012380513818840297,10.905879576771639,0.6029264402526842
7.0,20.401249670999547,0.3739897699999121,0.01237600145370697,10.905357023491751,0.6029323973221277
8.0,20.405066559848922,0.3741783729356188,0.012371197680689762,10.904834465093085,0.6029425910482388
9.0,20.408883260392592,0.37436701987282106,0.012366271032875051,10.904311903515648,0.6029534882322057
10.0,20.412699768578882,0.3745557104171144,0.012361284620057002,10.90378933969853,0.6029641025975543
11.0,20.41651608238557,0.37474444432005827,0.012356253179576181,10.903266774288126,0.602975281278149
12.0,20.420332199996412,0.3749332213905463,0.01235118137285745,10.90274420773045,0.6029870344769171
13.0,20.424148120268832,0.37512204148110356,0.012346091050328589,10.902221640277507,0.6029988281068008
14.0,20.42796384248936,0.37531090449407006,0.012340988473089816,10.901699072178374,0.6030103319040317
15.0,20.43177936607976,0.3754998103470082,0.012335879790465817,10.901176503609047,0.6030216738384916
16.0,20.435594690496096,0.3756887589606695,0.012330765905560379,10.900653934718866,0.6030328419681911
17.0,20.43940981524596,0.37587775025697945,0.012325650623758745,10.900131365620389,0.603043982718955
18.0,20.443224739837362,0.37606678416108646,0.012320530750721604,10.899608796425374,0.6030550738236055
19.0,20.447039463804984,0.3762558606004553,0.01231540848347894,10.899086227232438,0.6030662070477715
20.0,20.450853986719267,0.37644497950741856,0.012310286395475314,10.898563658128351,0.6030773813426551
21.0,20.45466830805005,0.37663414080482577,0.012305162576455633,10.898041089198431,0.6030886371780169
22.0,20.458482427363553,0.3768233444242724,0.012300034949967708,10.897518520559894,0.6030999092314566
23.0,20.462296344183322,0.37701259029279943,0.012294907509961883,10.89699595229584,0.6031111654522068
24.0,20.466110058067656,0.3772018783412827,0.012289780252239901,10.896473384485137,0.603122378298981
25.0,20.469923568596542,0.37739120850259583,0.012284653970924495,10.89595081720372,0.6031335430305722
26.0,20.47373687533574,0.3775805807074006,0.012279527366285079,10.895428250535328,0.6031446340615515
27.0,20.477549977867405,0.37776999488877666,0.012274401257398131,10.894905684557544,0.6031557289735157
28.0,20.481362875773755,0.37795945097973743,0.01226927632149144,10.894383119344067,0.603166851732455
29.0,20.485175568637032,0.37814894891323975,0.012264152569131404,10.893860554968297,0.6031779362062457
30.0,20.488988056039446,0.3783384886221814,0.012259030008426444,10.893337991503413,0.6031889400300198
31.0,20.492800337563196,0.37852807003938294,0.012253908212470833,10.892815429026545,0.6031999473009332
32.0,20.4966124127904,0.3787176930976028,0.012248787232226837,10.89229286760787,0.6032109251415166
33.0,20.500424281303125,0.3789073577295321,0.012243667441891714,10.891770307320026,0.603221907361506
34.0,20.504235942683316,0.37909706386778613,0.012238548603943562,10.891247748234914,0.6032329430023877
35.0,20.50804739651285,0.3792868114449141,0.01223343040448661,10.890725190419278,0.6032440589226807
36.0,20.51185864237345,0.37947660039338316,0.012228312514020194,10.89020263395001,0.6032552373274881
37.0,20.515669679846766,0.37966643064559874,0.01222319506711118,10.88968007890789,0.6032663613465677
38.0,20.519480508514306,0.37985630213387855,0.012218078747857719,10.889157525365547,0.6032775888609299
39.0,20.52329112795748,0.38004621479048045,0.012212963585930207,10.888634973395153,0.603288841738429
40.0,20.527101537757563,0.38023616854758036,0.012207849582883812,10.888112423068879,0.6033000570442614
41.0,20.530911737477243,0.380426163336465,0.012202736421990577,10.887589874462153,0.6033111854966233
42.0,20.534721726689646,0.3806161990888124,0.012197624277732204,10.887067327648552,0.6033223108259546
43.0,20.538531504976362,0.3808062757366044,0.012192513297408364,10.886544782700165,0.6033333739190616
44.0,20.54234107191884,0.3809963932117477,0.012187403482171663,10.886022239689106,0.6033443952796321
45.0,20.546150427098397,0.38118655144607755,0.012182294833012478,10.88549969868752,0.6033553545443465
46.0,20.549959570096235,0.38137675037135327,0.012177187350780355,10.88497715976757,0.6033662844697988
47.0,20.553768500489692,0.3815669899191378,0.012172080973505556,10.88445462299865,0.6033771339171704
48.0,20.557577217857414,0.3817572700209521,0.01216697571983691,10.883932088451228,0.6033879044379095
49.0,20.56138572178027,0.38194759060834244,0.01216187162845743,10.883409556197579,0.6033985920890031
50.0,20.565194011838997,0.38213795161276876,0.012156768699933158,10.882887026310016,0.6034092224318236
51.0,20.56900208761421,0.38232835296561857,0.012151666824832772,10.882364498860854,0.6034197662447919
52.0,20.572809948686384,0.3825187945982021,0.01214656608319918,10.881841973922471,0.6034303948593216
53.0,20.57661759463588,0.38270927644176833,0.012141466424721728,10.881319451568341,0.6034409000578207
54.0,20.58042502504292,0.38289979842746796,0.012136367823658928,10.880796931872306,0.6034512526752539
55.0,20.58423223948758,0.3830903604864027,0.01213127038251593,10.88027441490685,0.6034615152891015
56.0,20.588039237549843,0.38328096254957994,0.012126174101820637,10.879751900744505,0.6034718255279713
57.0,20.591846018809527,0.3834716045479514,0.012121078856640533,10.879229389458272,0.603482102773259
58.0,20.595652582846338,0.38366228641237793,0.01211598470891402,10.878706881120976,0.6034925676851771
59.0,20.59945892923984,0.38385300807365713,0.012110891723893687,10.878184375805265,0.6035029222091807
60.0,20.603265057569473,0.38404376946250113,0.012105799902154662,10.877661873583834,0.6035131723518918
61.0,20.607070967414547,0.38423457050956805,0.012100709244247259,10.877139374529424,0.603523378892199
62.0,20.610876658354233,0.384425411145417,0.012095619750698963,10.876616878714824,0.6035334673954587
63.0,20.614682129967576,0.3846162913005598,0.012090531422015934,10.876094386212868,0.6035434359394519
64.0,20.618487381833496,0.3848072109054059,0.012085444258684403,10.87557189709644,0.6035537165696429
65.0,20.622292413530765,0.38499816989031665,0.012080358261171901,10.875049411438477,0.6035636377219273
66.0,20.626097224638045,0.3851891681855699,0.012075273429928162,10.874526929311951,0.6035732324936661
67.0,20.629901814733852,0.38538020572135984,0.012070189765386057,10.874004450789897,0.6035826101223245
68.0,20.63370618339658,0.38557128242782973,0.012065107267962227,10.873481975945388,0.6035923807459304
69.0,20.637510330204485,0.3857623982350296,0.012060025916741747,10.87295950485171,0.6036027899422093
70.0,20.641314254735704,0.3859535530729466,0.012054945624914692,10.872437037582817,0.6036129715516991
71.0,20.645117956568235,0.3861447468714836,0.01204986650514348,10.871914574211887,0.603622999118498
72.0,20.64892143527995,0.38633597956049354,0.012044788557832697,10.87139211481215,0.6036327585934721
73.0,20.65272469044858,0.38652725106973124,0.012039711783368772,10.870869659456886,0.6036436077900844
74.0,20.65652772165175,0.3867185613288873,0.012034636182119763,10.870347208219423,0.6036532703786092
75.0,20.660330528466933,0.38690991026758764,0.012029561754435866,10.86982476117314,0.6036630122056384
76.0,20.664133110471482,0.38710129781537606,0.012024488500649355,10.869302318391467,0.6036726379591003
77.0,20.667935467242625,0.3872927239017301,0.012019416421074864,10.868779879947883,0.6036820330262036
78.0,20.67173759835745,0.38748418845604854,0.012014345516009516,10.868257445915921,0.6036913062499988
79.0,20.675539503392937,0.38767569140765784,0.012009275785733013,10.867735016369158,0.6037005779368544
80.0,20.67934118192591,0.3878672326858232,0.012004207230507654,10.867212591381227,0.603709994772878
81.0,20.683142633533095,0.38805881221972366,0.011999139850578466,10.86669017102581,0.6037201401435771
82.0,20.686943857791054,0.3882504299384779,0.01199407364617325,10.86616775537664,0.603730695500567
83.0,20.690744854276257,0.38844208577112155,0.011989008617502529,10.8656453445075,0.6037414357413311
84.0,20.69454562256503,0.3886337796466281,0.011983944764759624,10.865122938492222,0.6037507500829008
85.0,20.69834616223357,0.3888255114938948,0.011978882088120719,10.864600537404693,0.6037606268084846
86.0,20.702146472857955,0.38901728124174784,0.011973820587744786,10.864078141318844,0.6037707533814732
87.0,20.705946554014126,0.3892090888189382,0.01196876026377364,10.863555750308665,0.6037810102148924
88.0,20.70974640527792,0.38940093415415195,0.011963701116332026,10.86303336444819,0.6037912746425514
89.0,20.713546026225018,0.3895928171760033,0.011958643145527586,10.862510983811507,0.6038015226415886
90.0,20.71734541643099,0.389784737813024,0.011953586351450843,10.861988608472753,0.6038120422416944
91.0,20.721144575471296,0.38997669599369456,0.011948530734175416,10.861466238506118,0.6038228929362749
92.0,20.724943502921242,0.39016869164640994,0.011943476293757813,10.86094387398584,0.6038337155155511
93.0,20.728742198356024,0.390360724699492,0.011938423030237826,10.860421514986209,0.603844436951915
94.0,20.732540661350725,0.39055279508120355,0.011933370943638309,10.859899161581566,0.6038550629007785
95.0,20.736338891480287,0.3907449027197257,0.011928320033965325,10.8593768138463,0.603866208247716
96.0,20.740136888319533,0.39093704754318276,0.011923270301208405,10.858854471854853,0.6038772417382382
97.0,20.743934651443166,0.3911292294796131,0.011918221745340468,10.858332135681719,0.6038880752077047
98.0,20.74773218042576,0.39132144845699,0.011913174366317997,10.857809805401438,0.6038987360854411
99.0,20.751529474841778,0.3915137044032224,0.011908128164081233,10.857287481088605,0.6039090997163261
100.0,20.755326534265556,0.3917059972461463,0.011903083138554286,10.856765162817862,0.6039197765057034
101.0,20.759123358271296,0.3918983269135235,0.01189803928964524,10.856242850663902,0.6039307222037446
102.0,20.762919946433097,0.39209069333304813,0.0118929966172464,10.855720544701471,0.6039421569876003
103.0,20.766716298324933,0.3922830964323473,0.011887955121234518,10.855198245005361,0.6039534753160988
104.0,20.77051241352065,0.39247553613897534,0.011882914801470851,10.854675951650421,0.603963532212117
105.0,20.774308291593975,0.3926680123804179,0.011877875657801563,10.85415366471154,0.6039721842243505
106.0,20.778103932118533,0.39286052508409414,0.011872837690057815,10.853631384263664,0.6039831576484862
107.0,20.781899334667806,0.39305307417735064,0.011867800898056108,10.85310911038179,0.6039937067979203
108.0,20.785694498815165,0.39324565958746244,0.0118627652815985,10.85258684314096,0.6040040532440206
109.0,20.789489424133876,0.393438281241645,0.01185773084047292,10.85206458261627,0.6040143046731684
110.0,20.793284110197074,0.3936309390670369,0.01185269757445345,10.851542328882863,0.6040248218885335
111.0,20.797078556577773,0.39382363299070483,0.011847665483300596,10.851020082015934,0.6040353673120613
112.0,20.800872762848893,0.394016362939658,0.011842634565459285,10.850497842090727,0.6040462122496666
113.0,20.804666728583218,0.39420912884083,0.011837604820442094,10.849975609182538,0.6040578482711999
114.0,20.808460453353415,0.394401930621087,0.011832576248057603,10.849453383366711,0.6040702539882028
115.0,20.812253936732056,0.39459476820722594,0.011827548848103147,10.848931164718639,0.6040825939404245
116.0,20.816047178291548,0.3947876415259806,0.01182252261984951,10.848408953313761,0.6040948414963195
117.0,20.81984017760412,0.39498055050400466,0.011817497561000784,10.847886749227573,0.6041072394851473
118.0,20.823632934241875,0.3951734950678864,0.011812473671449525,10.847364552535613,0.6041196767797925
119.0,20.827425447776832,0.3953664751441502,0.011807450951080425,10.846842363313469,0.6041321037532655
120.0,20.831217717780884,0.39555949065925367,0.011802429399770631,10.846320181636775,0.6041407929906881
121.0,20.83500974382584,0.3957525415395799,0.011797409017389508,10.84579800758121,0.6041522946183289
122.0,20.83880152548339,0.39594562771145436,0.011792389803249074,10.845275841222508,0.6041637684995299
123.0,20.84259306232514,0.3961387491011312,0.011787371751088127,10.844753682636512,0.6041750215403439
124.0,20.846384353922573,0.3963319056347978,0.011782354860780808,10.844231531899114,0.6041863114038235
125.0,20.850175399846886,0.3965250972385848,0.011777339120404202,10.843709389085888,0.6041976441435669
126.0,20.85396619966844,0.3967183238385971,0.01177232448762226,10.843187254271184,0.6042088307255877
127.0,20.857756752958487,0.39691158536082377,0.011767311015596584,10.842665127531053,0.6042198164627378
128.0,20.861547059288156,0.3971048817311927,0.011762298704273724,10.842143008941592,0.6042306049394188
129.0,20.865337118228506,0.3972982128755584,0.01175728755359885,10.841620898578945,0.6042412890755092
130.0,20.86912692935048,0.3974915787197246,0.011752277557535301,10.841098796518825,0.6042518954402046
131.0,20.87291649222493,0.39768497918941187,0.011747268691720046,10.84057670283522,0.6042622939158365
132.0,20.87670580642261,0.3978784142102867,0.0117422609827637,10.84005461760443,0.6042726771307726
133.0,20.880494871514177,0.3980718837079477,0.011737254430659422,10.839532540902793,0.6042843696173371
134.0,20.88428368707019,0.3982653876079278,0.011732249035401007,10.8390104728067,0.6042953880371371
135.0,20.888072252661118,0.3984589258356908,0.011727244790721979,10.838488413392156,0.6043057068933816
136.0,20.89186056785733,0.3986524983166484,0.011722241677241787,10.837966362733946,0.6043159635894676
137.0,20.895648632229104,0.3988461049761311,0.011717239716637948,10.837444320908626,0.6043257228673532
138.0,20.89943644534662,0.3990397457394179,0.011712238902164638,10.836922287992856,0.6043361154797977
139.0,20.903224006779965,0.39923342053171246,0.011707239232348166,10.836400264063268,0.6043464724585508
140.0,20.907011316098455,0.3994271292779463,0.011702240601573608,10.835878249192834,0.6043567166593192
141.0,20.910798372872065,0.3996208719032152,0.011697243115967877,10.835356243458417,0.6043667484594532
142.0,20.914585176670663,0.3998146483325418,0.011692246773959067,10.834834246936973,0.6043765039004007
143.0,20.918371727064063,0.4000084584908922,0.011687251575805795,10.8343122597055,0.6043859606096031
144.0,20.92215802362197,0.4002023023031822,0.011682257488530374,10.833790281839853,0.6043959683073775
145.0,20.925944065913985,0.40039617969423974,0.01167726453822125,10.833268313416895,0.6044055803865873
146.0,20.929729853509645,0.4005900905888458,0.011672272731748116,10.832746354513775,0.6044154035032497
147.0,20.933515385978385,0.4007840349117085,0.011667282069438461,10.83222440520769,0.6044252308941621
148.0,20.93730066288955,0.40097801258748517,0.01166229255162733,10.831702465575882,0.604434892162906
149.0,20.941085683812403,0.40117202354075704,0.011657304178656824,10.831180535695642,0.6044444661619481
150.0,20.944870448315903,0.40136606769602207,0.011652316945359032,10.830658615643905,0.604453912111154
151.0,20.948654955968337,0.40156014497765175,0.01164733083533032,10.83013670549645,0.6044631593716723
152.0,20.952439206338703,0.4017542553100341,0.011642345870928793,10.82961480533071,0.6044724782293179
153.0,20.95622319899595,0.4019483986175145,0.01163736205255134,10.82909291522417,0.6044816914595917
154.0,20.96000693350891,0.4021425748243707,0.011632379376900997,10.82857103525436,0.6044906529887687
155.0,20.963790409446354,0.40233678385480864,0.011627397840465998,10.82804916549886,0.6044993734905874
156.0,20.96757362637696,0.402531025632985,0.011622417443746338,10.827527306035297,0.6045084258051499
157.0,20.971356583869323,0.4027253000829912,0.011617438186735928,10.827005456941341,0.6045188663786759
158.0,20.97513928149195,0.4029196071288508,0.011612460063657803,10.826483618294795,0.6045296328407875
159.0,20.978921718813268,0.4031139466945313,0.011607483075086392,10.825961790173503,0.6045407253280534
160.0,20.98270389540163,0.403308318703945,0.01160250722161165,10.825439972655351,0.6045516279870548
161.0,20.9864858108253,0.4035027230809319,0.011597532499297661,10.82491816581829,0.604562428059885
162.0,20.99026746465247,0.4036971597492737,0.011592558907690807,10.824396369740313,0.6045732047459025
163.0,20.99404885645123,0.4038916286327006,0.011587586447446145,10.823874584499459,0.604583922989485
164.0,20.99782998578961,0.4040861296548665,0.011582615119236063,10.823352810173809,0.6045945956139283
165.0,21.001610852235572,0.4042806627393774,0.011577644923749587,10.82283104684149,0.6046049783634163
166.0,21.005391455356968,0.40447522780977324,0.011572675861691735,10.822309294580673,0.6046153129456507
167.0,21.00917179472159,0.4046698247895372,0.011567707932627418,10.821787553469589,0.6046254445249567
168.0,21.01295186989715,0.40486445360209045,0.011562741137125528,10.821265823586513,0.6046351517264087
169.0,21.016731680451294,0.4050591141707969,0.01155777547594332,10.820744105009766,0.604644770230134
170.0,21.020511225951573,0.40525380641895037,0.01155281094985212,10.82022239781771,0.6046544031480484
171.0,21.024290505965475,0.40544853026980565,0.011547847532631125,10.819700702088571,0.6046643782628266
172.0,21.028069520060413,0.405643285646535,0.011542885243862334,10.819179017900792,0.6046742952682783
173.0,21.031848267803717,0.4058380724722712,0.011537924069243937,10.818657345332213,0.6046840337122144
174.0,21.03562674876266,0.40603289067007436,0.011532964021074189,10.818135684461218,0.6046936619004359
175.0,21.039404962504435,0.4062277401629529,0.011528005103576848,10.817614035366365,0.604703297042905
176.0,21.043182908596144,0.40642262087385395,0.011523047311616163,10.817092398126027,0.6047130722816755
177.0,21.04696058660484,0.4066175327256701,0.011518090628768003,10.816570772818011,0.6047228321174999
178.0,21.050737996097514,0.4068124756412299,0.01151313508008495,10.816049159521016,0.6047328668067035
179.0,21.054515136641044,0.40700744954330537,0.011508180666687927,10.815527558313779,0.6047429888711702
180.0,21.058292007802283,0.40720245435461355,0.011503227389713029,10.81500596927508,0.6047529250238245
181.0,21.06206860914798,0.40739748999781544,0.011498275247165539,10.814484392483665,0.6047628271888843
182.0,21.065844940244848,0.4075925563955099,0.011493324219188516,10.813962828017772,0.6047727417411748
183.0,21.0696210006595,0.4077876534702373,0.011488374331454233,10.81344127595632,0.6047824300632126
184.0,21.073396789958444,0.40798278114446873,0.011483425584533183,10.812919736378271,0.6047918540447391
185.0,21.077172307704327,0.408177939339822,0.01147847794085153,10.812398209362389,0.6048009558042516
186.0,21.08094755346361,0.4083731279786689,0.011473531440826206,10.811876694987713,0.6048114921562078
187.0,21.084722526802718,0.4085683469833435,0.011468586085725672,10.811355193333332,0.6048220656605536
188.0,21.08849722728972,0.40876359627617004,0.011463641842833286,10.81083370447707,0.6048324560214199
189.0,21.09227165449155,0.4089588757793872,0.011458698731295524,10.810312228497443,0.6048426522128726
190.0,21.09604580797461,0.40915418541515663,0.011453756741905784,10.80979076547306,0.6048526045978636
191.0,21.09981968730525,0.4093495251055949,0.011448815879002696,10.809269315482869,0.6048623598337022
192.0,21.103593292049766,0.40954489477274897,0.011443876157395156,10.808747878606198,0.6048720531834751
193.0,21.107366621774382,0.40974029433862214,0.011438937578440974,10.808226454922428,0.604881258444763
