k,PSNR,SSIM,mse,Log-Gradient,Angle
0.0,20.37520401439055,0.37270676760468385,0.0,10.908924819239388,0.5997680935976326
1.0,20.37838086324178,0.37286126148782994,0.010114276681363743,10.90848742846165,0.6028585920917771
2.0,20.3821632829589,0.37304753629874443,0.012228813801052925,10.907969617597368,0.6028984266789587
3.0,20.385974114131784,0.3732355198974604,0.012361168654846664,10.90744804376272,0.6029132390773535
4.0,20.389786257154405,0.37342366123993725,0.012369579984090873,10.90692626366657,0.6029181151760586
5.0,20.39359741685107,0.3736118175128491,0.012364474739154507,10.90640458404722,0.602919971085735
6.0,20.397407235506662,0.37379996383164965,0.012356679806895438,10.905883055408053,0.6029263493216169
7.0,20.401215628335176,0.37398809390381516,0.012348062845627833,10.905361691173725,0.6029322706810839
8.0,20.405022571066127,0.37417620568174786,0.012339159010209991,10.904840496028084,0.6029424512209762
9.0,20.408828054823907,0.37436429837003327,0.012330136949777238,10.904319471924367,0.6029533175695816
10.0,20.412632075748466,0.37455237153100596,0.012321059827362094,10.903798619814358,0.6029638965770495
11.0,20.41643463201087,0.3747404248732015,0.012311942389179502,10.90327794035678,0.6029750471591805
12.0,20.42023572198977,0.3749284581626937,0.012302789299727989,10.902757434009622,0.6029867640041989
13.0,20.424035344738968,0.37511647120938857,0.012293622436894965,10.902237101036599,0.6029985145269464
14.0,20.427833499742544,0.3753044638731668,0.012284448072778557,10.901716941698238,0.6030099629881313
15.0,20.431630186621025,0.37549243602931853,0.012275272361715198,10.901196956181758,0.60302124750589
16.0,20.435425405030404,0.37568038755648364,0.01226609620963515,10.900677144647501,0.6030323514821861
17.0,20.43921915467941,0.3758683183346503,0.0122569234264372,10.900157507218815,0.6030434302719374
18.0,20.443011435278354,0.376056228247202,0.012247750801045839,10.899638044018074,0.6030544535501728
19.0,20.44680224656539,0.37624411718001255,0.012238580541808076,10.899118755154277,0.6030655199799209
20.0,20.450591588315582,0.37643198502397635,0.012229415222688274,10.898599640724399,0.6030766251949571
21.0,20.45437946020452,0.3766198316606877,0.012220252914814716,10.898080700823831,0.6030877968972186
22.0,20.458165862005373,0.3768076569806446,0.012211091551398094,10.89756193557959,0.6030989899073119
23.0,20.46195079344969,0.3769954608699669,0.012201935130991458,10.897043345084363,0.6031101614869533
24.0,20.465734254305104,0.3771832432187749,0.012192783644085322,10.896524929426441,0.60312128923505
25.0,20.469516244361884,0.37737100391934764,0.012183637883094718,10.896006688691015,0.6031323655168527
26.0,20.473296763397396,0.37755874286194335,0.0121744965428814,10.895488622970882,0.6031433708645542
27.0,20.477075811206458,0.377746459939382,0.012165360446280244,10.894970732352466,0.6031543525532748
28.0,20.480853387585082,0.377934155044598,0.012156230267307454,10.894453016918135,0.60316538097311
29.0,20.484629492330452,0.3781218280706362,0.012147106013992662,10.893935476749773,0.6031763632215315
30.0,20.48840412524087,0.37830947891063943,0.012137987691902335,10.893418111928854,0.6031872695648254
31.0,20.492177286115737,0.3784971074578627,0.012128874863344104,10.892900922540726,0.6031981608806047
32.0,20.49594897475554,0.37868471360564876,0.01211976758855903,10.892383908663385,0.6032090225859629
33.0,20.49971919096182,0.37887229724745136,0.012110666235573756,10.8918670703772,0.603219887517541
34.0,20.503487934537166,0.3790598582768143,0.012101570562507461,10.891350407761614,0.6032307623899267
35.0,20.507255205285205,0.37924739658737927,0.012092480250120627,10.890833920890726,0.6032417527224673
36.0,20.51102100301058,0.37943491207288815,0.012083394957508086,10.890317609848662,0.6032527838357681
37.0,20.514785327518954,0.37962240462717384,0.012074314829442385,10.889801474723212,0.6032637989896972
38.0,20.518548178617028,0.3798098741441784,0.012065240552932004,10.889285515593716,0.6032748362307703
39.0,20.522309556112504,0.3799973205179142,0.012056172150243035,10.888769732538941,0.6032859529056837
40.0,20.526069459814096,0.380184743642511,0.012047109620369782,10.888254125637477,0.6032970388007474
41.0,20.529827889512305,0.3803721434113399,0.01203805262919561,10.887738694971109,0.6033080334963983
42.0,20.53358484501068,0.3805595197183942,0.012029001374613579,10.887223440619321,0.603319007735021
43.0,20.53734032612164,0.3807468724581133,0.012019955990222285,10.886708362660052,0.6033299364760781
44.0,20.541094332658616,0.38093420152503166,0.012010916474614199,10.886193461171073,0.6033408031809795
45.0,20.54484686443604,0.3811215068137788,0.012001882826220358,10.885678736229993,0.6033516052124458
46.0,20.548597921269334,0.3813087882190795,0.0119928550433317,10.88516418791426,0.6033623887067212
47.0,20.552347502971358,0.38149604563564293,0.011983833062381757,10.884649816298454,0.6033730978120587
48.0,20.55609560935714,0.3816832789582991,0.011974816895399332,10.884135621457855,0.6033837218303525
49.0,20.559842240245175,0.38187048808207025,0.011965806581574224,10.883621603469447,0.6033942765702719
50.0,20.563587395454963,0.38205767290206777,0.011956802118919781,10.88310776241007,0.6034047593464252
51.0,20.56733107480701,0.3822448333135083,0.011947803394474377,10.88259409835637,0.6034151543692313
52.0,20.571073278122817,0.3824319692116926,0.011938810485802026,10.882080611384866,0.6034255845220741
53.0,20.57481400522488,0.38261908049203536,0.01192982333811553,10.881567301573021,0.6034359738457002
54.0,20.57855325593671,0.38280616705002973,0.011920841926709617,10.881054168998407,0.6034462032036501
55.0,20.582291030082793,0.3829932287812851,0.011911866350763998,10.88054121373709,0.6034563064453694
56.0,20.586027327488623,0.38318026558149443,0.011902896608261783,10.880028435864979,0.603466414503929
57.0,20.589762147980682,0.38336727734645476,0.011893932561522639,10.879515835458301,0.6034764782388385
58.0,20.593495491386467,0.3835542639720651,0.011884974288093698,10.879003412592859,0.60348663353069
59.0,20.597227357534443,0.3837412253543128,0.011876021842742846,10.878491167344107,0.6034968862219977
60.0,20.600957746254092,0.3839281613892898,0.011867075223505188,10.877979099787366,0.6035069764601628
61.0,20.604686657375876,0.38411507197319156,0.011858134428392415,10.877467209997807,0.6035169890646578
62.0,20.608414090731245,0.3843019570023032,0.011849199455394508,10.876955498050458,0.6035269589967256
63.0,20.612140046152664,0.3844888163730129,0.01184027030248145,10.87644396402021,0.6035367881002853
64.0,20.61586452347357,0.3846756499818104,0.01183134696760455,10.875932607981799,0.6035466254524374
65.0,20.61958752252839,0.3848624577252788,0.011822429448697611,10.875421430009828,0.60355662771877
66.0,20.623309043152574,0.3850492395001132,0.011813517743677988,10.874910430178755,0.6035662324731388
67.0,20.627029085182524,0.3852359952030923,0.011804611850447412,10.87439960856289,0.6035755307413989
68.0,20.63074764845565,0.3854227247311086,0.011795711766892737,10.873888965236407,0.6035846751600817
69.0,20.634464732810358,0.3856094279811497,0.011786817430494832,10.873378500273775,0.6035944440664303
70.0,20.63818033808603,0.38579610485029775,0.011777928827076126,10.872868213749392,0.6036045453276443
71.0,20.641894464123048,0.38598275523575015,0.011769046030699691,10.872358105736955,0.6036144408861994
72.0,20.645607110762786,0.38616937903479237,0.011760169039246643,10.871848176310023,0.6036241060563777
73.0,20.6493182778476,0.38635597614481515,0.011751297850581188,10.871338425542008,0.6036348702636684
74.0,20.653027965220833,0.3865425464633138,0.011742432462550738,10.870828853506186,0.6036440972639049
75.0,20.656736172726827,0.38672908988787963,0.011733572872986089,10.870319460275683,0.6036536998602381
76.0,20.660442900210903,0.3869156063162093,0.011724719079701622,10.86981024592349,0.603663211649496
77.0,20.664148147519374,0.3871020956461034,0.011715871080495535,10.869301210522453,0.6036725929598984
78.0,20.667851914499536,0.38728855777545973,0.011707028873149873,10.868792354145278,0.6036817496150683
79.0,20.67155420099968,0.38747499260228474,0.01169819245543079,10.868283676864527,0.6036907754974532
80.0,20.675255006869072,0.38766140002467747,0.011689361825088422,10.86777517875262,0.6036997906677896
81.0,20.67895433195798,0.3878477799408515,0.011680536979857126,10.867266859881838,0.6037089217708994
82.0,20.68265217611765,0.38803413224911476,0.011671717917455401,10.866758720324313,0.6037186812018056
83.0,20.686348539200313,0.3882204568478837,0.011662904635586006,10.866250760152043,0.6037288817743001
84.0,20.690043421059187,0.3884067536356794,0.011654097131935878,10.865742979436877,0.6037394096416664
85.0,20.693736821548473,0.3885930225111161,0.011645295404176333,10.865235378250528,0.6037485787807071
86.0,20.697428740523375,0.38877926337292906,0.01163649944996292,10.86472795666456,0.603758038385032
87.0,20.701119177840045,0.38896547611993887,0.011627709266935479,10.864220714750395,0.6037678682143242
88.0,20.70480813335566,0.3891516606510829,0.01161892485271827,10.863713652579321,0.6037778319872535
89.0,20.708495606928352,0.389337816865396,0.01161014620491984,10.86320677022247,0.6037877752485974
90.0,20.71218159841726,0.38952394466202955,0.011601373321133247,10.862700067750845,0.6037977457185497
91.0,20.715866107682483,0.3897100439402275,0.011592606198935929,10.862193545235295,0.6038077238621419
92.0,20.719549134585137,0.389896114599339,0.011583844835889909,10.86168720274653,0.6038181904958511
93.0,20.723230678987278,0.39008215653882533,0.011575089229541686,10.861181040355119,0.6038287172287645
94.0,20.72691074075198,0.39026816965825173,0.011566339377422442,10.860675058131482,0.6038391109256549
95.0,20.73058931974328,0.3904541538572878,0.011557595277048204,10.860169256145905,0.6038494572289793
96.0,20.73426641582622,0.39064010903570784,0.011548856925919648,10.85966363446852,0.6038599702156914
97.0,20.737942028866797,0.3908260350933898,0.011540124321522491,10.859158193169321,0.6038707244338543
98.0,20.741616158732015,0.3910119319303296,0.011531397461327454,10.85865293231816,0.6038813279212212
99.0,20.745288805289835,0.3911977994466154,0.01152267634279051,10.85814785198474,0.6038917411687826
100.0,20.748959968409228,0.3913836375424478,0.011513960963352901,10.857642952238624,0.6039019603694832
101.0,20.752629647960127,0.391569446118143,0.011505251320441352,10.857138233149229,0.6039119824750787
102.0,20.75629784381345,0.39175522507410543,0.011496547411468333,10.85663369478583,0.6039223522168121
103.0,20.7599645558411,0.391940974310867,0.011487849233832134,10.856129337217553,0.6039329358376796
104.0,20.76362978391595,0.39212669372904724,0.011479156784917078,10.855625160513384,0.6039440174225422
105.0,20.767293527911875,0.3923123832293962,0.011470470062093807,10.855121164742163,0.6039548413113054
106.0,20.77095578770372,0.3924980427127516,0.011461789062719451,10.854617349972587,0.603964410141067
107.0,20.7746165631673,0.39268367208007054,0.011453113784137946,10.854113716273204,0.6039728671953156
108.0,20.778275854179423,0.39286927123241194,0.01144444422368018,10.85361026371242,0.6039834161322211
109.0,20.781933660617874,0.3930548400709523,0.011435780378664348,10.853106992358494,0.6039935771239072
110.0,20.785589982361415,0.39324037849696886,0.011427122246396311,10.852603902279544,0.6040035612618693
111.0,20.78924481928979,0.39342588641184384,0.011418469824169677,10.852100993543534,0.6040134257282236
112.0,20.79289817128373,0.39361136371708644,0.011409823109266385,10.851598266218293,0.6040235121662715
113.0,20.796550038224936,0.3937968103142923,0.011401182098244205,10.851095720371495,0.6040336192603925
114.0,20.800200419996088,0.3939822261051904,0.011392546787554346,10.850593356070679,0.604044004517302
115.0,20.803849316480843,0.3941676109915944,0.011383917174528427,10.850091173383229,0.6040548671465152
116.0,20.807496727563862,0.39435296487545096,0.01137529325648847,10.849589172376385,0.604066702022561
117.0,20.81114265313074,0.39453828765880267,0.011366675030747389,10.849087353117243,0.6040785720689404
118.0,20.814787093068045,0.394723579243803,0.011358062493458767,10.848585715672748,0.6040903259974125
119.0,20.81843004726324,0.3949088395327165,0.011349455640585817,10.848084260109705,0.6041021783984156
120.0,20.822071515604783,0.3950940684279118,0.011340854469536709,10.847582986494762,0.6041141022358059
121.0,20.82571149798212,0.3952792658318855,0.011332258977713755,10.847081894894426,0.6041261457682539
122.0,20.829349994285668,0.39546443164722067,0.011323669162513227,10.846580985375052,0.6041357354244956
123.0,20.832987004406856,0.39564956577663296,0.01131508502132539,10.846080258002843,0.6041457331448635
124.0,20.83662252823808,0.39583466812294504,0.011306506551534734,10.845579712843856,0.6041567291007514
125.0,20.840256565672735,0.3960197385890832,0.011297933745311347,10.84507934996405,0.6041677167369663
126.0,20.84388911660518,0.3962047770780967,0.01128936659884273,10.844579169429256,0.6041785304715621
127.0,20.847520180929884,0.396389783493186,0.011280805052583115,10.844079171303507,0.6041893391442801
128.0,20.85114975854306,0.3965747577376326,0.011272249149819127,10.84357935565205,0.6042001748226249
129.0,20.854777849342092,0.3967596997148277,0.011263698898507165,10.843079722540278,0.6042108352984699
130.0,20.85840445322534,0.3969446093282622,0.01125515429612973,10.84258027203344,0.6042213152443278
131.0,20.86202957009215,0.3971294864815518,0.011246615340169392,10.842081004196631,0.604231609821575
132.0,20.865653199842853,0.3973143310784248,0.011238081992327937,10.841581919092302,0.604241812542167
133.0,20.869275342378778,0.39749914302270856,0.01122955428143133,10.841083016785104,0.6042519485148112
134.0,20.87289599760222,0.397683922218369,0.011221032205950915,10.840584297339694,0.6042618825961974
135.0,20.876515165416457,0.3978686685694684,0.011212515763427149,10.840085760820585,0.6042714857250351
136.0,20.88013284572576,0.3980533819801885,0.011204004951402781,10.83958740729214,0.6042825210755054
137.0,20.88374903843539,0.3982380623548205,0.011195499734998468,10.839089236816632,0.6042934553073106
138.0,20.887363743451573,0.39842270959778264,0.011187000140631911,10.838591249457991,0.6043032014696706
139.0,20.89097696068153,0.39860732361359646,0.011178506168134117,10.838093445280132,0.6043131197131898
140.0,20.894588690033466,0.39879190430690464,0.01117001781315162,10.837595824346833,0.604322540560635
141.0,20.898198931416545,0.39897645158244704,0.011161535058964299,10.837098386721472,0.6043321708215285
142.0,20.901807684740348,0.3991609653449104,0.011153057807741765,10.836601132464235,0.6043420699129198
143.0,20.905414949916107,0.39934544549929557,0.011144586160588535,10.836104061638572,0.6043518333866681
144.0,20.909020726856014,0.3995298919507155,0.01113612011409151,10.835607174307802,0.6043614511168051
145.0,20.912625015473253,0.39971430460440177,0.011127659651536934,10.83511047053471,0.604370904547307
146.0,20.916227815681985,0.3998986833657059,0.011119204753141917,10.834613950381371,0.6043800123691817
147.0,20.919829127397357,0.4000830281400849,0.011110755445993919,10.834117613910692,0.604389197924652
148.0,20.923428950535477,0.40026733883312354,0.011102311727971506,10.833621461185432,0.6043986117163417
149.0,20.92702728501346,0.40045161535051577,0.011093873596962182,10.833125492268193,0.6044078318805207
150.0,20.93062413074938,0.40063585759807957,0.011085441050862073,10.832629707221436,0.6044172952858909
151.0,20.934219487662308,0.4008200654817362,0.011077014087575455,10.83213410610746,0.604426576667513
152.0,20.937813355671864,0.40100423890749193,0.011068592692639758,10.831638688987601,0.6044357393382207
153.0,20.941405734698538,0.4011883777814465,0.011060176859232584,10.831143455922737,0.6044448318933615
154.0,20.944996624664334,0.401372482009877,0.01105176660218247,10.830648406974728,0.6044538154326131
155.0,20.948586025492265,0.40155655149918995,0.011043361919453553,10.830153542205283,0.6044626074156806
156.0,20.952173937106284,0.4017405861558963,0.011034962809015876,10.829658861675957,0.6044714270434548
157.0,20.95576035943136,0.40192458588664487,0.011026569268844849,10.829164365448158,0.604480209151181
158.0,20.959345292393404,0.402108550598184,0.01101818129114482,10.82867005358314,0.6044887942900453
159.0,20.96292873591934,0.40229248019739255,0.011009798872551229,10.828175926142011,0.6044971743356929
160.0,20.96651068993703,0.40247637459126073,0.011001422011150614,10.827681983185723,0.6045053493183108
161.0,20.97009115437535,0.4026602336868989,0.010993050705040492,10.827188224775075,0.6045148926587777
162.0,20.973670129164127,0.40284405739153994,0.010984684946130871,10.82669465097079,0.6045248237040654
163.0,20.977247614234173,0.40302784561252797,0.01097632473232965,10.826201261833441,0.60453520426772
164.0,20.98082360951727,0.4032115982573396,0.01096797006117267,10.825708057423457,0.6045455919036874
165.0,20.98439811494618,0.4033953152335557,0.010959620926538714,10.825215037801117,0.6045558009868631
166.0,20.987971130454643,0.4035789964488877,0.010951277326243448,10.82472220302655,0.60456592948211
167.0,20.99154265597737,0.4037626418111679,0.010942939258530956,10.824229553159732,0.6045760236653679
168.0,20.99511269145004,0.4039462512283327,0.010934606721662252,10.823737088260485,0.6045860442283155
169.0,20.99868123680931,0.40412982460845454,0.010926279713914487,10.823244808388473,0.6045960304966218
170.0,21.002248291992824,0.40431336185972416,0.010917958232884188,10.822752713603222,0.6046057413960337
171.0,21.005813856939177,0.4044968628904484,0.010909642276305248,10.822260803964106,0.6046153935482941
172.0,21.009377931587952,0.4046803276090551,0.010901331842507965,10.821769079530347,0.6046249479576922
173.0,21.0129405158797,0.4048637559240947,0.010893026929837147,10.821277540361011,0.604634070442354
174.0,21.01650160975593,0.40504714774423717,0.010884727513770688,10.820786186514866,0.6046430391893891
175.0,21.02006121315917,0.4052305029782743,0.010876433605637364,10.820295018050603,0.6046520018605926
176.0,21.023619326032865,0.40541382153512057,0.010868145206527244,10.819804035026596,0.6046610803667831
177.0,21.02717594832146,0.4055971033238131,0.010859862302049187,10.819313237500724,0.6046703720423868
178.0,21.03073107997036,0.4057803482534985,0.010851584907330371,10.818822625531267,0.6046795064199527
179.0,21.03428472092596,0.4059635562334664,0.010843313017408835,10.818332199176343,0.6046884851029802
180.0,21.037836871135603,0.4061467271731112,0.010835046614787382,10.817841958493421,0.6046974490130753
181.0,21.041387530547617,0.406329860981957,0.010826785698964043,10.817351903539851,0.6047064645812149
182.0,21.044936699111283,0.406512957569646,0.010818530282963574,10.816862034373298,0.604715507811708
183.0,21.04848437677687,0.40669601684594997,0.01081028036546586,10.816372351051273,0.6047245399164963
184.0,21.0520305634956,0.4068790387207544,0.010802035945164639,10.815882853631129,0.604734025542021
185.0,21.05557525921967,0.4070620231040745,0.010793797020112173,10.81539354217005,0.604743406929098
186.0,21.05911846390226,0.4072449699060459,0.010785563564084043,10.814904416724458,0.6047526249389076
187.0,21.062660177497495,0.40742787903692745,0.010777335601831918,10.814415477351256,0.6047617904469565
188.0,21.06620039995869,0.4076107504067199,0.010769113111849672,10.81392672410707,0.6047710108043255
189.0,21.069739131240173,0.40779358392555487,0.010760896093033146,10.813438157048369,0.6047800278326937
190.0,21.07327637129903,0.4079763795040794,0.010752684564179615,10.812949776231576,0.6047888157183299
191.0,21.07681212009333,0.408159137053049,0.010744478524106257,10.812461581712967,0.6047972855957805
192.0,21.080346377582085,0.40834185648335747,0.010736277971635094,10.811973573548656,0.6048061495331898
193.0,21.083879143725305,0.40852453770601765,0.010728082905170527,10.811485751794592,0.604815640540297
