k,PSNR,SSIM,mse,Log-Gradient,Angle
0.0,20.37520401439055,0.37270676760468385,0.0,10.908924819239388,0.5997680935976326
1.0,20.37838218677045,0.3728613258601483,0.010118489910007076,10.908487246227919,0.6028585966973071
2.0,20.382167506303382,0.3730477427185696,0.012238063748355125,10.907969037292412,0.602898442018919
3.0,20.38598282600287,0.37323594682623124,0.012375545756445193,10.907446847859925,0.6029132753252554
4.0,20.38980104730326,0.37342438727365973,0.01238910004637064,10.906924234447171,0.6029181743014246
5.0,20.393619875124646,0.3736129213231654,0.012389137224406781,10.906401503727361,0.6029200629695471
6.0,20.397438951700618,0.373801524155464,0.012386480798347742,10.905878706159873,0.6029264629955753
7.0,20.401258192157986,0.3739901895406033,0.012382997489144518,10.905355855131198,0.602932429019957
8.0,20.405077572127833,0.37417891549253196,0.012379222064653382,10.904832955289255,0.6029426260378681
9.0,20.408897082631192,0.3743677012769229,0.012375323028327518,10.904310008552416,0.602953530946504
10.0,20.412716719701834,0.3745565465168897,0.012371363476022227,10.903787015838244,0.6029641541701581
11.0,20.41653648140269,0.37474545098144213,0.01236735814222233,10.903263977771664,0.6029753399090334
12.0,20.42035636600233,0.37493441449692105,0.012363311686943174,10.902740894777295,0.6029871022007343
13.0,20.424176372442766,0.3751234369332503,0.012359245953114564,10.902217767085785,0.6029989066400453
14.0,20.42799650009487,0.3753125182101363,0.012355167198449332,10.901694594924896,0.6030104242948715
15.0,20.43181674846457,0.37550165826249565,0.012351081570380701,10.901171378449341,0.6030217806642791
16.0,20.435637117091883,0.37569085702841004,0.012346989970665764,10.900648117787199,0.6030329651928302
17.0,20.439457605568144,0.37588011444709285,0.012342896202921847,10.90012481302981,0.6030441211077427
18.0,20.443278213484927,0.376069430460977,0.012338797076346933,10.899601464267723,0.6030552293170129
19.0,20.44709894046026,0.37625880501476594,0.012334694784504545,10.899078071578383,0.6030663793497281
20.0,20.450919786147736,0.3764482380580143,0.012330591900069975,10.898554635027411,0.6030775709777227
21.0,20.454740750100164,0.3766377295307814,0.012326486516795198,10.89803115467898,0.6030888481865441
22.0,20.458561831966527,0.3768272793818212,0.012322376555173648,10.897507630629205,0.6031001398912206
23.0,20.462383031352953,0.3770168875553383,0.012318266007365642,10.89698406294012,0.6031114173679911
24.0,20.466204347900106,0.3772065539993163,0.012314154869859609,10.896460451669538,0.6031226512509801
25.0,20.47002578127013,0.3773962786637346,0.012310043936564156,10.895936796872359,0.6031338382113635
26.0,20.473847331110786,0.37758606149632884,0.012305931908456809,10.89541309861131,0.6031449512421788
27.0,20.477668997086003,0.377775902447218,0.012301819603036201,10.894889356943,0.6031560742323626
28.0,20.481490778859577,0.3779658014664434,0.012297707697691887,10.894365571920165,0.6031672208406728
29.0,20.48531267609514,0.3781557585039541,0.012293596202983028,10.893841743595267,0.6031783310814733
30.0,20.489134688456115,0.3783457735096147,0.012289485127012126,10.893317872020573,0.6031893617042575
31.0,20.492956815605687,0.37853584643319826,0.012285374044929149,10.892793957252287,0.6032003958232209
32.0,20.496779057206783,0.3787259772243809,0.01228126300473187,10.892269999339755,0.6032114042240975
33.0,20.500601412922066,0.3789161658327487,0.012277152381522324,10.891745998334763,0.6032224145907016
34.0,20.5044238824139,0.3791064122077801,0.012273041938224975,10.891221954288392,0.603233491320605
35.0,20.508246465344357,0.37929671629886874,0.012268931361635845,10.890697867246592,0.6032446383173534
36.0,20.512069161375184,0.37948707805529547,0.012264820324459299,10.89017373726546,0.6032558529268712
37.0,20.51589197016783,0.3796774974262575,0.012260708958080464,10.889649564405024,0.6032670058358981
38.0,20.519714891383426,0.3798679743608366,0.012256597945231094,10.889125348717203,0.6032782810427518
39.0,20.5235379246828,0.380058508808021,0.012252487316789061,10.888601090253465,0.6032895689567702
40.0,20.52736106972643,0.3802491007167048,0.012248377074308781,10.888076789065309,0.6033008147522945
41.0,20.5311843261562,0.38043975003486113,0.012244266904756208,10.887552445207469,0.6033119780344961
42.0,20.535007693623907,0.3806304567108199,0.012240156976141498,10.887028058732923,0.6033231403507108
43.0,20.538831171789713,0.38082122069319574,0.01223604743853903,10.88650362969316,0.6033342383729244
44.0,20.5426547603135,0.38101204193050053,0.012231938293100672,10.885979158139708,0.6033452990491046
45.0,20.546478458854786,0.38120292037113757,0.012227829540815825,10.88545464412415,0.6033562992854179
46.0,20.55030226707278,0.38139385596342423,0.012223721182533098,10.884930087698125,0.6033672624212675
47.0,20.554126184622593,0.38158484865543546,0.012219613156052023,10.884405488910485,0.6033781479202721
48.0,20.557950211160502,0.3817758983952027,0.012215505481011265,10.88388084781124,0.6033889562885644
49.0,20.561774346344762,0.3819670051307275,0.01221139819534021,10.883356164452202,0.6033996815980064
50.0,20.56559858983333,0.3821581688099201,0.0122072912996025,10.882831438885255,0.6034103417798468
51.0,20.56942294128379,0.38234938938057467,0.012203184684607052,10.882306671162297,0.6034209366197901
52.0,20.57324740035341,0.38254066679039145,0.012199078430376228,10.881781861335323,0.603431601501418
53.0,20.577071966699137,0.38273200098697036,0.012194972487073436,10.88125700945744,0.6034421357803734
54.0,20.58089663997757,0.38292339191780655,0.01219086682806628,10.880732115582157,0.6034525190400067
55.0,20.58472141984496,0.38311483953028924,0.012186761556048243,10.880207179761651,0.60346283031377
56.0,20.588546305957255,0.38330634377171524,0.012182656671542898,10.879682202048167,0.6034731848213636
57.0,20.592371297970043,0.38349790458926547,0.012178552052149925,10.879157182494438,0.6034835322888222
58.0,20.59619639553857,0.38368952193003153,0.012174447755290963,10.878632121153062,0.6034940518598368
59.0,20.60002159831776,0.3838811957409969,0.01217034384818804,10.878107018076477,0.6035044389341376
60.0,20.603846905962197,0.3840729259690397,0.0121662403314108,10.877581873317194,0.6035147277801632
61.0,20.607672318126117,0.38426471256094547,0.01216213720550394,10.877056686927794,0.6035249812183242
62.0,20.611497834463425,0.3844565554633872,0.012158034470988878,10.876531458960937,0.6035350994493374
63.0,20.615323454627685,0.3846484546229381,0.01215393212836551,10.876006189469347,0.6035451453842431
64.0,20.619149178272117,0.38484040998607405,0.012149830178113467,10.87548087850583,0.6035554745287267
65.0,20.622975005049614,0.38503242149916433,0.012145728620693375,10.87495552612326,0.6035653861475658
66.0,20.626800934612717,0.38522448910847445,0.01214162745654776,10.874430132374592,0.60357497763471
67.0,20.630626966613637,0.38541661276017153,0.012137526686101963,10.873904697312847,0.6035843975956121
68.0,20.634453100704228,0.3856087924003165,0.012133426309764767,10.87337922099113,0.6035944530246596
69.0,20.638279336536026,0.3858010279748696,0.01212932631631352,10.872853703462697,0.603604869687963
70.0,20.64210567376021,0.38599331942969367,0.01212522660027511,10.87232814478165,0.6036150877685029
71.0,20.645932112027623,0.3861856667105367,0.012121127283254821,10.871802545001268,0.6036251513864082
72.0,20.649758650988765,0.3863780697630564,0.01211702836564778,10.871276904174913,0.6036349487997722
73.0,20.653585290293798,0.38657052853280555,0.012112929847830568,10.870751222356015,0.6036458462982915
74.0,20.65741202959254,0.38676304296522507,0.01210883173016123,10.870225499598085,0.6036555639324758
75.0,20.66123886853447,0.3869556130056686,0.012104734012979375,10.869699735954715,0.6036653491027554
76.0,20.665065806768727,0.3871482385993727,0.012100636696606444,10.869173931479569,0.6036749861335707
77.0,20.668892843944096,0.3873409196914814,0.012096539781345853,10.868648086226388,0.6036843681307286
78.0,20.672719979709036,0.3875336562270349,0.012092443267483093,10.868122200248992,0.6036937127320713
79.0,20.676547213711657,0.3877264481509646,0.012088347155285919,10.867596273601283,0.6037030758621004
80.0,20.68037454559972,0.3879192954081084,0.012084251445004274,10.867070306337231,0.6037126922405186
81.0,20.684201975020645,0.388112197943196,0.012080156136870482,10.866544298510894,0.6037230692627551
82.0,20.688029501621536,0.3883051557008567,0.012076061231099252,10.866018250176399,0.6037338327670144
83.0,20.691857125049108,0.38849816862561376,0.012071966727887568,10.86549216138796,0.6037442253197284
84.0,20.695684844949774,0.38869123666189753,0.012067872627414966,10.864966032199863,0.6037536916247618
85.0,20.699512660969578,0.3888843597540214,0.012063778929843325,10.864439862666472,0.6037637558976435
86.0,20.703340572754236,0.38907753784620996,0.012059685635316971,10.863913652842236,0.6037740137014739
87.0,20.707168579949116,0.38927077088258244,0.012055592743962765,10.863387402781674,0.6037843356879747
88.0,20.710996682199237,0.38946405880714785,0.012051500255889979,10.86286111253939,0.6037946916834375
89.0,20.714824879149294,0.38965740156382367,0.012047408171190458,10.862334782170064,0.6038049819569884
90.0,20.718653170443602,0.38985079909641457,0.012043316489938529,10.861808411728456,0.6038158031692897
91.0,20.722481555726183,0.39004425134863313,0.012039225212191201,10.861282001269402,0.6038267615348989
92.0,20.726310034640676,0.39023775826408014,0.012035134337988024,10.86075555084782,0.6038375978965413
93.0,20.730138606830387,0.3904313197862641,0.01203104386735133,10.860229060518707,0.6038483837441938
94.0,20.733967271938283,0.3906249358585805,0.01202695380028616,10.859702530337136,0.6038592911794342
95.0,20.737796029607,0.39081860642433197,0.012022864136780458,10.859175960358263,0.6038704973656761
96.0,20.741624879478806,0.3910123314267135,0.012018774876805088,10.858649350637322,0.6038815494410938
97.0,20.745453821195632,0.3912061108088211,0.012014686020313916,10.858122701229624,0.6038924051992932
98.0,20.749282854399077,0.39139994451364085,0.0120105975672441,10.85759601219056,0.603903037952835
99.0,20.753111978730395,0.39159383248407015,0.012006509517516,10.857069283575605,0.6039135750946583
100.0,20.75694119383048,0.3917877746628972,0.012002421871033446,10.856542515440308,0.6039244993480356
101.0,20.76077049933991,0.3919817709928039,0.011998334627683951,10.856015707840298,0.6039356419726475
102.0,20.764599894898893,0.392175821416375,0.011994247787338722,10.855488860831285,0.6039473339497342
103.0,20.768429380147317,0.392369925876092,0.011990161349853012,10.854961974469058,0.6039582760678073
104.0,20.772258954724702,0.3925640843143389,0.011986075315066232,10.854435048809487,0.603967647479787
105.0,20.776088618270258,0.3927582966733878,0.011981989682802235,10.853908083908518,0.6039775146538945
106.0,20.77991837042283,0.39295256289542224,0.01197790445286948,10.85338107982218,0.603988260079214
107.0,20.783748210820903,0.3931468829225096,0.011973819625061334,10.85285403660658,0.6039988312697562
108.0,20.787578139102667,0.39334125669662695,0.011969735199156348,10.852326954317906,0.6040091827627375
109.0,20.791408154905938,0.3935356841596416,0.011965651174918487,10.851799833012423,0.604019672957797
110.0,20.79523825786819,0.39373016525332427,0.011961567552097463,10.851272672746477,0.6040302706681275
111.0,20.79906844762656,0.393924699919342,0.011957484330191705,10.850745473576495,0.6040411176693053
112.0,20.802898723817847,0.39411928809926144,0.011953401507570446,10.850218235558986,0.6040522795613901
113.0,20.806729086078505,0.39431392973454366,0.0119493190840292,10.849690958750536,0.6040647161661233
114.0,20.81055953404465,0.3945086247665537,0.011945237059351669,10.84916364320781,0.6040772175435233
115.0,20.814390067352043,0.3947033731365521,0.011941155433309956,10.848636288987553,0.6040895825527371
116.0,20.818220685636053,0.3948981747856926,0.011937074204022548,10.848108896146591,0.6041020368436493
117.0,20.822051388531648,0.39509302965502985,0.01193299337032979,10.84758146474183,0.604114591471326
118.0,20.82588217567348,0.395287937685511,0.01192891293210027,10.847053994830256,0.6041273248541211
119.0,20.82971304669586,0.39548289881799387,0.011924832889194409,10.846526486468928,0.6041364243500816
120.0,20.833544001232767,0.3956779129932242,0.011920753241464514,10.845998939714981,0.6041479477567451
121.0,20.837375038917855,0.3958729801518464,0.01191667398875461,10.845471354625635,0.6041595888358771
122.0,20.84120615938444,0.396068100234417,0.011912595126645513,10.844943731258226,0.6041710486098347
123.0,20.84503736226551,0.39626327318137783,0.011908516652507205,10.844416069670196,0.6041823814724435
124.0,20.848868647193722,0.39645849893307306,0.011904438566189343,10.843888369919066,0.6041938234161723
125.0,20.85270001380081,0.3966537774297812,0.011900360834529954,10.843360632061406,0.6042052098603706
126.0,20.856531461718223,0.3968491086116703,0.011896283457821642,10.842832856153914,0.604216372677756
127.0,20.860362990577674,0.3970444924187914,0.011892206467749961,10.842305042254361,0.6042273402336803
128.0,20.864194600010556,0.39723992879109066,0.011888129864234851,10.841777190420599,0.6042381313031896
129.0,20.86802628964792,0.39743541766841295,0.011884053647194396,10.841249300710556,0.6042489251908897
130.0,20.871858059120484,0.3976309589905062,0.011879977800392476,10.840721373180926,0.6042595014991314
131.0,20.875689908058664,0.39782655269700834,0.01187590231899929,10.840193407888373,0.6042697838805419
132.0,20.87952183609252,0.3980221987274708,0.011871827220193224,10.83966540489107,0.6042814909357418
133.0,20.883353842851786,0.3982178970213366,0.011867752503938539,10.839137364247275,0.6042929945959635
134.0,20.88718592796587,0.39841364751795005,0.011863678170199692,10.838609286015318,0.6043034314461345
135.0,20.891018091063867,0.3986094501565542,0.011859604203287,10.83808117025251,0.6043138639110678
136.0,20.894850331774517,0.3988053048762948,0.011855530602806533,10.837553017016303,0.6043237979459563
137.0,20.89868264972626,0.39900121161622043,0.011851457373884367,10.837024826365356,0.6043341695264962
138.0,20.90251504454718,0.3991971703152702,0.011847384516564976,10.836496598358403,0.6043446833290771
139.0,20.906347515864706,0.39939318091217996,0.011843311978488891,10.835968333052351,0.604355079702121
140.0,20.910180063305937,0.39958924334557966,0.011839239755510047,10.835440030504108,0.6043652674227326
141.0,20.914012686498072,0.39978535755413613,0.011835167901233078,10.834911690772753,0.6043751991376759
142.0,20.917845385067963,0.3999815234764043,0.01183109641588079,10.834383313917447,0.6043847662155135
143.0,20.921678158642145,0.40017774105083675,0.011827025291466054,10.833854899997123,0.604394879841082
144.0,20.925511006846833,0.4003740102158016,0.011822954505111033,10.833326449069958,0.6044046553481606
145.0,20.929343929307905,0.40057033090955224,0.011818884087509402,10.832797961195356,0.6044145455797995
146.0,20.933176925650923,0.4007667030702544,0.01181481403895121,10.832269436432803,0.6044244726320535
147.0,20.937009995501104,0.40096312663596434,0.011810744359733815,10.831740874841865,0.6044342640491261
148.0,20.940843138483363,0.4011596015446437,0.011806675050161475,10.831212276482184,0.6044439609540856
149.0,20.94467635422228,0.40135612773415746,0.011802606110544931,10.830683641413485,0.6044535338240208
150.0,20.94850964234144,0.40155270514218766,0.011798537523878926,10.830154969694286,0.6044629031351597
151.0,20.952343002464396,0.40174933370635224,0.011794469297629184,10.829626261383739,0.6044723363301984
152.0,20.956176434214775,0.40194601336421526,0.011790401442023582,10.829097516541815,0.6044816656378382
153.0,20.960009937215883,0.4021427440532435,0.011786333954602244,10.828568735228567,0.6044907294302831
154.0,20.963843511090673,0.40233952571081083,0.011782266830814585,10.828039917504128,0.6044995509755445
155.0,20.967677155461804,0.40253635827417705,0.011778200071119347,10.827511063428716,0.6045088428706084
156.0,20.971510869951587,0.4027332416805203,0.011774133675572254,10.826982173062627,0.6045194012779423
157.0,20.975344654182035,0.4029301758669032,0.01177006763815885,10.82645324646632,0.6045303705385475
158.0,20.97917850777482,0.40312716077031013,0.011766001959411486,10.825924283700331,0.6045416131232231
159.0,20.98301243035128,0.4033241963276026,0.011761936639877995,10.825395284825278,0.6045526558508254
160.0,20.986846421532466,0.40352128247556135,0.011757871676084134,10.824866249901868,0.604563608639835
161.0,20.990680480939066,0.4037184191508692,0.011753807066962703,10.824337178990893,0.6045745506897253
162.0,20.994514608191466,0.4039156062900952,0.011749742813125522,10.823808072153222,0.6045854291997816
163.0,20.998348802909735,0.40411284382972307,0.011745678915201906,10.823278929449803,0.6045962383220677
164.0,21.002183064713602,0.4043101317061335,0.0117416153738377,10.822749750941659,0.6046067259583724
165.0,21.00601739322249,0.4045074698556163,0.011737552189694793,10.822220536689901,0.604617261304324
166.0,21.009851788055485,0.40470485821434804,0.01173348936255364,10.821691286755723,0.6046274221632896
167.0,21.013686248831377,0.4049022967184208,0.011729426892666458,10.821162001200406,0.6046372461566217
168.0,21.017520775168602,0.40509978530382834,0.011725364780746986,10.82063268008531,0.604647021158167
169.0,21.021355366685302,0.4052973239064553,0.011721303027523097,10.820103323471878,0.6046569105907794
170.0,21.025190022999283,0.4054949124621012,0.011717241615216414,10.819573931421495,0.6046670892187945
171.0,21.029024743728037,0.4056925509064593,0.01171318054578271,10.819044503995698,0.6046771160554757
172.0,21.032859528488743,0.40589023917513045,0.011709119817342318,10.818515041255642,0.6046869635578898
173.0,21.036694376898247,0.4060879772036153,0.011705059434376901,10.8179855432628,0.6046967509647737
174.0,21.040529288573087,0.4062857649273182,0.011700999405328184,10.817456010078981,0.6047066473636283
175.0,21.044364263129474,0.4064836022815446,0.011696939728919279,10.816926441765983,0.6047165556667443
176.0,21.048199300183306,0.4066814892015094,0.011692880380698798,10.81639683838477,0.6047265232661497
177.0,21.05203439935016,0.4068794256223147,0.011688821389744013,10.8158671999974,0.6047368594196159
178.0,21.05586956024529,0.40707741147898907,0.011684762757138195,10.815337526666005,0.6047470644282938
179.0,21.059704782483642,0.4072754467064428,0.011680704483979794,10.814807818452794,0.6047571127188545
180.0,21.063540065679835,0.4074735312394963,0.011676646569453138,10.814278075420006,0.6047672525873771
181.0,21.067375409448182,0.40767166501288193,0.011672588991022588,10.813748297629335,0.6047772456022182
182.0,21.071210813402665,0.40786984796122305,0.011668531775724376,10.813218485143235,0.6047869924609796
183.0,21.075046277156954,0.40806808001905653,0.011664474924729764,10.812688638024248,0.6047963852744701
184.0,21.078881800320982,0.4082663611200823,0.01166041840499174,10.812158756334776,0.6048063612824707
185.0,21.08271738250725,0.40846469119853007,0.011656362245987985,10.811628840137473,0.6048172298638487
186.0,21.08655302332879,0.4086630701886567,0.011652306449602298,10.811098889494913,0.6048278838520836
187.0,21.090388722400032,0.40886149802469246,0.011648250981781674,10.810568904468369,0.6048383159524823
188.0,21.09422447933333,0.4090599746407109,0.011644195864222223,10.810038885120072,0.6048485710475767
189.0,21.098060293740694,0.4092584999706747,0.011640141091189575,10.809508831512627,0.6048585485355003
190.0,21.101896165233846,0.40945707394847125,0.0116360866762373,10.808978743709039,0.6048686550100484
191.0,21.105732093424187,0.4096556965078773,0.0116320326249316,10.80844862177251,0.604878701557724
192.0,21.109568077922823,0.4098543675825819,0.011627978938597728,10.80791846576631,0.6048883812769281
193.0,21.113404118340537,0.41005308710618044,0.011623925618569569,10.807388275753807,0.6048978931688292
