k,PSNR,SSIM,mse,Log-Gradient,Angle
0.0,20.37520401439055,0.37270676760468385,0.0,10.908924819239388,0.5997680935976326
1.0,20.378382233503377,0.3728613281330917,0.010118638676325262,10.908487239793367,0.602858596859925
2.0,20.382167655447056,0.37304775000810103,0.012238390421837277,10.907969016799449,0.6028984425601693
3.0,20.385983133697827,0.37323596190493663,0.012376053607093767,10.907446805621758,0.6029132766050135
4.0,20.389801569751015,0.37342441292008893,0.012389789710301113,10.906924162766899,0.6029181763892936
5.0,20.393620668554377,0.3736129603197311,0.012390008760818251,10.906401394902453,0.602920066214762
6.0,20.397440072364002,0.37380157928810337,0.012387534147095196,10.905878552482909,0.6029264670094462
7.0,20.401259696327962,0.3739902635986712,0.01238423255690254,10.905355648890065,0.6029324346152521
8.0,20.4050795160982,0.374179011268775,0.012380638744335497,10.90483268876723,0.6029426322138688
9.0,20.408899522716467,0.3743678215674647,0.012376921207599527,10.90430967402819,0.6029535384867942
10.0,20.412719712237198,0.3745566941212169,0.012373143040071598,10.903786605585942,0.6029641632740043
11.0,20.416540082743893,0.3747456287024093,0.012369318975713762,10.903263484060862,0.6029753502591134
12.0,20.42036063252569,0.374934625140739,0.012365453674273545,10.902740309873023,0.6029871141563868
13.0,20.42418136054508,0.375123683309478,0.012361568977338786,10.902217083248532,0.602998920504263
14.0,20.428002266193424,0.3753128031316875,0.012357671142005639,10.90169380441062,0.6030104406058333
15.0,20.431823348997092,0.3755019845456246,0.012353766315354472,10.901170473509469,0.6030217995240115
16.0,20.43564460851651,0.37569122749271283,0.012349855398885798,10.900647090668638,0.6030329869482167
17.0,20.43946604436341,0.37588053191550763,0.012345942195885723,10.900123655974944,0.6030441455408089
18.0,20.443287656149707,0.37606989775976823,0.012342023516157182,10.89960016951442,0.6030552567704734
19.0,20.447109443513774,0.37625932497353465,0.012338101552632916,10.899076631359993,0.6030664097761288
20.0,20.450931406129488,0.37644881350969267,0.012334178877833389,10.898553041572775,0.6030776044602476
21.0,20.45475354356995,0.3766383633116133,0.01233025358619828,10.898029400212426,0.6030888854454385
22.0,20.45857585550437,0.3768279743313774,0.012326323597662872,10.897505707370557,0.6031001806183259
23.0,20.462398341559105,0.37701764651650316,0.012322392904052503,10.896981963104702,0.6031114618604441
24.0,20.46622100139499,0.3772073798182907,0.012318461501957458,10.89645816746817,0.6031226995104632
25.0,20.470043834694337,0.37739717419002433,0.0123145301852294,10.895934320511369,0.6031338903537159
26.0,20.473866841125037,0.37758702958274665,0.01231059765495143,10.895410422292528,0.6031450072478725
27.0,20.47769002037111,0.3777769459498832,0.012306664728324597,10.894886472863764,0.6031561352053457
28.0,20.48151337211644,0.3779669232447597,0.012302732082747682,10.894362472273324,0.60316728602417
29.0,20.4853368960447,0.3781569614206326,0.012298799728759215,10.893838420569187,0.6031784008063154
30.0,20.489160591839315,0.37834706043065136,0.012294867674441391,10.893314317799135,0.603189436191112
31.0,20.49298445918348,0.3785372202278765,0.012290935495287553,10.892790164014889,0.603200475097392
32.0,20.496808497760068,0.37872744076527215,0.012287003238752951,10.892265959261316,0.6032114888299372
33.0,20.500632707251675,0.3789177219956992,0.012283071280079948,10.891741703585733,0.6032225042044281
34.0,20.504457087340565,0.3791080638719105,0.012279139382252327,10.891217397034746,0.6032335881598937
35.0,20.50828163770869,0.37929846634657566,0.01227520723216873,10.890693039649834,0.6032447406476307
36.0,20.512106358037645,0.379488929372243,0.012271274502902956,10.890168631482629,0.6032559616526509
37.0,20.515931248008688,0.3796794529013723,0.012267341325259721,10.889644172588689,0.6032671208797515
38.0,20.519756307302735,0.37987003688630816,0.012263408381710328,10.889119663015476,0.6032784032643137
39.0,20.52358153560037,0.38006068127929976,0.012259475703326179,10.888595102810003,0.6032896974827132
40.0,20.527406932581805,0.38025138603248004,0.01225554329164206,10.888070492019311,0.6033009485702407
41.0,20.531232497908668,0.38044215109708635,0.012251610834255883,10.88754583069368,0.6033121181996522
42.0,20.535058231252368,0.38063297642468924,0.012247678498017124,10.887021118881641,0.6033232872860281
43.0,20.538884132292722,0.3808238619671445,0.01224374643346996,10.886496356630234,0.6033343914187754
44.0,20.542710200709223,0.3810148076761947,0.012239814641746616,10.885971543986548,0.6033454587506824
45.0,20.546536436180975,0.38120581350348987,0.012235883123816835,10.885446680997726,0.6033564662586511
46.0,20.55036283838673,0.38139687940056516,0.012231951880509491,10.884921767710964,0.603367435093752
47.0,20.554189407001115,0.38158800531872944,0.012228020849564288,10.884396804170677,0.6033783270037395
48.0,20.558016141699905,0.3817791912092286,0.012224090050774041,10.88387179042245,0.6033891422048522
49.0,20.56184304216083,0.3819704370232859,0.012220159521916154,10.883346726513665,0.6033998740609477
50.0,20.565670108061262,0.38216174271201897,0.012216229263534181,10.88282161249178,0.603410539767381
51.0,20.56949733907819,0.3823531082264377,0.012212299166459833,10.88229644840427,0.6034211434023087
52.0,20.573324734888274,0.3825445335174497,0.012208369310692168,10.88177123429871,0.6034318144828681
53.0,20.577152295167778,0.382736018535853,0.012204439646458533,10.881245970223791,0.6034423538399724
54.0,20.580980019592623,0.382927563232335,0.01220051014694997,10.880720656228608,0.6034527429647017
55.0,20.584807907838353,0.38311916755748543,0.01219658091487345,10.880195292360929,0.6034630647520974
56.0,20.588635959580145,0.3833108314617833,0.012192651950732113,10.87966987866859,0.6034734246761208
57.0,20.592464174492818,0.3835025548956021,0.012188723132552197,10.87914441519992,0.603483784826432
58.0,20.596292552250812,0.3836943378092121,0.012184794516939726,10.878618902003117,0.6034943138981631
59.0,20.60012109252821,0.38388618015276504,0.012180866171443983,10.878093339126222,0.6035047070507925
60.0,20.603949794998716,0.38407808187631914,0.01217693809661399,10.877567726617348,0.603515002465486
61.0,20.607778659335672,0.3842700429298231,0.01217301029297367,10.87704206452469,0.603525264078718
62.0,20.611607685212054,0.3844620632631183,0.012169082761023657,10.876516352896514,0.6035353875571575
63.0,20.615436872300457,0.3846541428259349,0.01216515550124298,10.875990591781164,0.603545456753515
64.0,20.619266220273108,0.38484628156790385,0.012161228514090298,10.875464781227063,0.6035557837983064
65.0,20.623095728801868,0.3850384794385448,0.012157301800005234,10.874938921282705,0.6035656945065339
66.0,20.62692539755823,0.38523073638727007,0.012153375359409224,10.874413011996669,0.6035752857687523
67.0,20.63075522621331,0.38542305236338853,0.012149449192706439,10.873887053417608,0.6035847166055172
68.0,20.634585214437855,0.38561542731609766,0.01214552330028444,10.873361045594253,0.6035948189090701
69.0,20.638415361902233,0.38580786119449534,0.012141597672608327,10.87283498857549,0.6036052368878287
70.0,20.642245668276445,0.38600035394756765,0.012137672200897202,10.872308882411062,0.6036154606028298
71.0,20.646076133230128,0.38619290552419483,0.01213374700831181,10.871782727149895,0.6036255307296734
72.0,20.649906756432532,0.3863855158731462,0.01212982209522574,10.871256522840993,0.6036353340107843
73.0,20.653737537552548,0.38657818494309143,0.012125897461993952,10.870730269533437,0.6036462416530642
74.0,20.657568476258675,0.3867709126825898,0.012121973108952709,10.870203967276389,0.6036559693557032
75.0,20.66139957221905,0.3869636990400906,0.01211804903641989,10.869677616119093,0.6036657606640468
76.0,20.66523082510145,0.3871565439639435,0.012114125244695012,10.869151216110874,0.6036754006208076
77.0,20.66906223457325,0.3873494474023833,0.012110201734059538,10.868624767301135,0.6036847816970041
78.0,20.67289380030147,0.38754240930354156,0.012106278504776946,10.868098269739363,0.6036941374328768
79.0,20.676725521952747,0.3877354296154461,0.012102355557092836,10.867571723475123,0.6037035166383429
80.0,20.680557399193347,0.3879285082860117,0.012098432891234976,10.867045128558063,0.6037131843172073
81.0,20.684389431689173,0.3881216452630503,0.012094510507413366,10.866518485037915,0.6037235904810323
82.0,20.688221619105718,0.3883148404942643,0.012090588405820349,10.865991792964486,0.6037343895635765
83.0,20.69205396110814,0.38850809392724917,0.012086666586630539,10.865465052387671,0.6037447124484767
84.0,20.6958864573612,0.3887014055094975,0.012082745050000843,10.864938263357447,0.603754222043973
85.0,20.69971910752929,0.3888947751883907,0.012078823796070544,10.864411425923864,0.6037643104966011
86.0,20.70355191127642,0.38908820291119967,0.012074902824961303,10.863884540137065,0.6037745891429069
87.0,20.70738486826623,0.3892816886250971,0.012070982136777141,10.863357606047268,0.6037849242338834
88.0,20.711217978161983,0.3894752322771442,0.012067061731604508,10.862830623704777,0.603795295295016
89.0,20.71505124062657,0.38966883381429357,0.012063141609512202,10.862303593159977,0.6038056167623382
90.0,20.718884655322483,0.389862493183389,0.012059221770551602,10.861776514463337,0.6038164681941366
91.0,20.722718221911876,0.39005621033117643,0.012055302214756492,10.861249387665406,0.6038274436428546
92.0,20.726551940056503,0.3902499852042856,0.012051382942143274,10.860722212816816,0.6038382848882801
93.0,20.730385809417736,0.3904438177492418,0.012047463952710941,10.860194989968283,0.6038490799081174
94.0,20.734219829656592,0.39063770791246527,0.012043545246441157,10.859667719170606,0.6038600435287945
95.0,20.73805400043369,0.39083165564026584,0.012039626823298354,10.859140400474665,0.6038712553520236
96.0,20.741888321409277,0.3910256608788513,0.012035708683229809,10.858613033931425,0.6038823091074746
97.0,20.74572279224323,0.39121972357431406,0.012031790826165794,10.858085619591934,0.6038931709244523
98.0,20.74955741259505,0.3914138436726469,0.012027873252019644,10.857558157507322,0.6039037946710015
99.0,20.75339218212386,0.39160802111973286,0.01202395596068789,10.857030647728802,0.6039143767731383
100.0,20.757227100488397,0.39180225586135364,0.012020038952050468,10.85650309030767,0.6039253296473381
101.0,20.761062167347024,0.39199654784316845,0.012016122225970824,10.855975485295309,0.603936505267037
102.0,20.764897382357738,0.39219089701074766,0.012012205782296103,10.85544783274318,0.6039482390035961
103.0,20.76873274517815,0.3923853033095422,0.012008289620857293,10.854920132702828,0.6039590930223192
104.0,20.772568255465483,0.39257976668490063,0.012004373741469595,10.854392385225887,0.6039683478846626
105.0,20.776403912876606,0.3927742870820661,0.012000458143932392,10.853864590364068,0.6039784350611532
106.0,20.780239717068003,0.3929688644461739,0.011996542828029751,10.853336748169172,0.6039891737881704
107.0,20.784075667695774,0.3931634987222458,0.011992627793530433,10.852808858693075,0.6039997339499908
108.0,20.78791176441564,0.3933581898552148,0.011988713040188325,10.852280921987743,0.6040100987131257
109.0,20.79174800688296,0.39355293778987477,0.011984798567742662,10.851752938105225,0.604020628063256
110.0,20.7955843947527,0.3937477424709435,0.011980884375918306,10.851224907097652,0.6040312385703864
111.0,20.799420927679463,0.393942603843024,0.011976970464093597,10.85069682901724,0.6040421333015918
112.0,20.803257605317462,0.394137521850606,0.011973056830711442,10.850168703916292,0.6040534015895265
113.0,20.80709442732055,0.39433249643807167,0.01196914347554241,10.84964053184719,0.6040659257386125
114.0,20.810931393342187,0.39452752754970377,0.011965230398345227,10.8491123128624,0.6040784438259665
115.0,20.81476850303547,0.3947226151296738,0.011961317598866907,10.848584047014478,0.6040908192136103
116.0,20.818605756053028,0.39491775912204236,0.011957405075003745,10.848055734356056,0.6041033181234158
117.0,20.822443152047082,0.39511295947076536,0.011953492825774225,10.847527374939855,0.6041158965288561
118.0,20.8262806906695,0.395308216119691,0.011949580851022022,10.846998968818676,0.604128672856249
119.0,20.830118371571768,0.39550352901256075,0.011945669150582556,10.846470516045404,0.6041374751217513
120.0,20.833956194405015,0.3956988980930001,0.011941757724283025,10.845942016673002,0.6041492172712091
121.0,20.837794158820003,0.395894323304548,0.011937846571942206,10.845413470754515,0.6041608738878346
122.0,20.84163226446711,0.3960898045906243,0.011933935688460079,10.844884878343125,0.6041723273229127
123.0,20.84547051099637,0.39628534189454295,0.011930025071828271,10.844356239492113,0.6041836883012466
124.0,20.84930889805744,0.3964809351595129,0.011926114721871316,10.84382755425484,0.6041951557915407
125.0,20.85314742529895,0.3966765843286741,0.011922204601701274,10.843298822683611,0.6042065380775099
126.0,20.856986092369347,0.3968722893450429,0.011918294719026234,10.84277004483109,0.6042176987362244
127.0,20.860824898917237,0.3970680501515221,0.011914385101764428,10.842241220750903,0.6042286628411547
128.0,20.86466384459087,0.3972638666908932,0.011910475749810245,10.841712350496763,0.6042394820605101
129.0,20.868502929038115,0.397459738905842,0.01190656666305601,10.841183434122463,0.6042502675425693
130.0,20.872342151906487,0.39765566673894415,0.011902657823329102,10.840654471680422,0.6042608353473276
131.0,20.876181512843136,0.39785165013266593,0.011898749229457427,10.840125463223316,0.6042712784330647
132.0,20.88002101149484,0.39804768902937626,0.011894840896818002,10.839596408805205,0.6042830830216012
133.0,20.883860647508005,0.3982437833713351,0.011890932825349096,10.839067308480223,0.6042943890438978
134.0,20.8877004205287,0.39843993310069264,0.011887025014988867,10.838538162302587,0.6043048426893686
135.0,20.89154033020259,0.3986361381594987,0.011883117448407128,10.838008970325383,0.6043152652328544
136.0,20.89538037617501,0.39883239848969093,0.011879210127246756,10.837479732602088,0.60432517533454
137.0,20.899220558090903,0.3990287140331142,0.011875303056144789,10.836950449187256,0.6043356795472699
138.0,20.903060875594868,0.39922508473148927,0.01187139623511985,10.836421120135531,0.6043461929602029
139.0,20.90690132833072,0.3994215105263192,0.011867489602821066,10.8358917454994,0.604356595339645
140.0,20.91074191594204,0.39961799135902704,0.011863583172645293,10.835362325332015,0.6043667750266776
141.0,20.9145826380724,0.3998145271710398,0.011859676989561816,10.834832859688374,0.6043766655419341
142.0,20.91842349436501,0.4000111179036852,0.011855771053767396,10.834303348623562,0.6043862861506896
143.0,20.92226448446271,0.40020776349817416,0.011851865354687305,10.83377379219234,0.6043964304315271
144.0,20.92610560800798,0.40040446389562123,0.011847959874582929,10.833244190448912,0.6044061663217621
145.0,20.929946864642936,0.40060121903702717,0.011844054641516647,10.832714543448624,0.6044161244283787
146.0,20.93378825400933,0.40079802886330057,0.011840149655751938,10.8321848512469,0.6044260620205284
147.0,20.937629775748544,0.40099489331522936,0.011836244917559595,10.831655113899252,0.6044358564824713
148.0,20.941471429501615,0.4011918123335045,0.011832340427217066,10.831125331461275,0.604445565971426
149.0,20.945313214909184,0.40138878585871535,0.011828436185008243,10.830595503988649,0.6044551224804737
150.0,20.949155131610823,0.401585813831248,0.01182453217186155,10.830065631535692,0.604464472150308
151.0,20.952997179246164,0.4017828961914373,0.011820628399345324,10.829535714157682,0.6044739600477933
152.0,20.956839357454808,0.4019800328795635,0.01181672487556958,10.829005751910554,0.6044832685452325
153.0,20.960681665875978,0.4021772238357862,0.011812821596841147,10.828475744850339,0.6044923079443344
154.0,20.964524104148538,0.40237446900017143,0.011808918559780765,10.82794569303315,0.6045011283297385
155.0,20.96836667191099,0.4025717683126657,0.011805015764820431,10.827415596515186,0.6045107832616958
156.0,20.972209368801465,0.4027691217131275,0.011801113210795461,10.82688545535275,0.6045213260514274
157.0,20.97605219445775,0.40296652914130204,0.011797210892848678,10.826355269602294,0.6045324741619937
158.0,20.979895148517258,0.4031639905368323,0.011793308811486306,10.825825039320351,0.6045437170577171
159.0,20.983738230617046,0.40336150583925345,0.011789406967165496,10.825294764563543,0.6045547576142974
160.0,20.987581440393797,0.4035590749879971,0.011785505355607195,10.82476444538859,0.6045657359477506
161.0,20.991424777483843,0.40375669792239277,0.01178160397655185,10.824234081852296,0.6045766959307124
162.0,20.995268241523156,0.4039543745816681,0.011777702830585181,10.823703674011547,0.6045875944180557
163.0,20.999111832147346,0.40415210490493064,0.01177380191831021,10.823173221923316,0.6045983823446369
164.0,21.002955548991658,0.404349888831203,0.01176990124034646,10.822642725644656,0.6046088581861769
165.0,21.006799391690972,0.40454772629939634,0.011766000797329305,10.822112185232708,0.6046194263212402
166.0,21.010643359879815,0.40474561724831043,0.011762100588823581,10.821581600744707,0.6046295016499551
167.0,21.014487453192356,0.4049435616166514,0.011758200615242275,10.82105097223798,0.6046393296944378
168.0,21.018331671262395,0.4051415593430199,0.011754300877272309,10.820520299769935,0.6046491300911238
169.0,21.022176013723385,0.40533961036590355,0.011750401375614573,10.819989583398064,0.6046591239959733
170.0,21.0260204802084,0.40553771462369265,0.011746502087628842,10.819458823179792,0.6046693347446676
171.0,21.02986507035017,0.4057358720546788,0.011742603024350354,10.818928019172752,0.6046793491992344
172.0,21.033709783781063,0.4059340825970364,0.011738704174824144,10.818397171434032,0.6046891983776105
173.0,21.03755462013309,0.4061323461888491,0.011734805551809861,10.817866280021304,0.6046990135937116
174.0,21.0413995790379,0.40633066276808655,0.01173090716020252,10.81733534499245,0.6047089771308028
175.0,21.045244660126777,0.4065290322726243,0.011727008994128561,10.81680436640519,0.6047189136547796
176.0,21.04908986303066,0.4067274546402306,0.011723111038268397,10.816273344316741,0.604728976663731
177.0,21.052935187380108,0.4069259298085597,0.011719213317086944,10.81574227878525,0.6047393630990763
178.0,21.05678063280535,0.40712445771518296,0.01171531583164147,10.81521116986895,0.6047495545260352
179.0,21.060626198936234,0.407323038297555,0.011711418583004509,10.814680017626157,0.604759615918582
180.0,21.064471885402266,0.4075216714930236,0.01170752156573703,10.814148822115097,0.6047697927045569
181.0,21.068317691832583,0.4077203572388459,0.011703624766488938,10.813617583393698,0.6047797462408352
182.0,21.07216361785597,0.40791909547217015,0.011699728207654721,10.81308630152054,0.604789456233629
183.0,21.076009663100848,0.40811788613003425,0.011695831890209148,10.812554976554281,0.6047987798546615
184.0,21.079855827191277,0.4083167291485317,0.011691935775726652,10.812023608553426,0.604809264783854
185.0,21.083702109755016,0.4085156244645079,0.011688039904852182,10.811492197576797,0.6048201186689977
186.0,21.087548510420223,0.40871457201473865,0.011684144263898537,10.81096074368273,0.6048307319588917
187.0,21.091395028815484,0.4089135717359162,0.011680248833105044,10.81042924692878,0.6048411503993623
188.0,21.09524166456768,0.40911262356459605,0.01167635363137368,10.80989770737355,0.6048513803757429
189.0,21.09908841730335,0.4093117274372185,0.011672458647875843,10.809366125075709,0.6048613977375055
190.0,21.10293528664869,0.4095108832901368,0.011668563903749093,10.80883450009454,0.6048715113646718
191.0,21.106782272229538,0.40971009105958495,0.01166466940028292,10.808302832489407,0.6048815729667808
192.0,21.110629373671376,0.40990935068171014,0.01166077513877615,10.807771122319764,0.6048912694798178
193.0,21.114476590599356,0.4101086620925545,0.01165688112053604,10.807239369645151,0.6049010942553076
