k,PSNR,SSIM,mse,Log-Gradient,Angle
0.0,20.37520401439055,0.37270676760468385,0.0,10.908924819239388,0.5997680935976326
1.0,20.378382312214566,0.37286133196136,0.010118889240012804,10.908487228955796,0.6028585971338183
2.0,20.38216790664943,0.37304776228583836,0.012238940640329647,10.907968982283194,0.6028984434712558
3.0,20.385983651954408,0.3732359873022945,0.012376908999824382,10.907446734479192,0.6029132787603911
4.0,20.38980244973127,0.3734244561174182,0.012390951360701867,10.906924042032859,0.6029181799059397
5.0,20.393622004978145,0.37361302600410423,0.012391476780667732,10.906401211601779,0.6029200716807825
6.0,20.397441959992744,0.37380167215269955,0.012389308447163959,10.90587829363169,0.6029264737699468
7.0,20.401262229962708,0.37399038834262144,0.012386312992069092,10.905355301495975,0.6029324440399757
8.0,20.405082790578888,0.3741791725970986,0.012383025146291167,10.904832239829654,0.6029426426164879
9.0,20.408903632921728,0.37436802419106324,0.012379613399186817,10.904309110538275,0.602953551189932
10.0,20.41272475308418,0.37455694275685386,0.01237614083994786,10.90378591452663,0.6029641786087083
11.0,20.41654614918823,0.3747459280727005,0.012372622201644392,10.903262652406898,0.6029753676931775
12.0,20.42036781956137,0.37493497997414593,0.012369062143561458,10.902739324590982,0.6029871342952038
13.0,20.42418976320445,0.37512409834030475,0.012365482505015596,10.902215931296821,0.6029989438581934
14.0,20.42801197954708,0.375313283100059,0.012361889542052876,10.901692472739489,0.60301046809274
15.0,20.431834468153877,0.37550253419749585,0.012358289401148076,10.901168949061018,0.6030218313093634
16.0,20.435657228623455,0.375691851579865,0.01235468298335782,10.900645360376819,0.6030330235955591
17.0,20.439480260605684,0.37588123519552985,0.01235107409139921,10.900121706765571,0.6030441866990505
18.0,20.443303563750593,0.37607068499606516,0.012347459536082168,10.899597988305166,0.6030553030170036
19.0,20.44712713773459,0.37626020093531104,0.012343841509265716,10.899074205060403,0.6030664610310977
20.0,20.450950982269582,0.37644978297195114,0.012340222583198005,10.898550357084265,0.6030776608637475
21.0,20.454775096966628,0.376639431055154,0.012336600853465234,10.898026444428282,0.6030889482191202
22.0,20.458599481532875,0.3768291451427846,0.012332974239051187,10.897502467175949,0.6031002492265669
23.0,20.462424135632563,0.37701892518814567,0.012329346731205405,10.896978425376684,0.6031115368120318
24.0,20.466249058964365,0.3772087711483121,0.012325718326678246,10.896454319075684,0.6031227810494367
25.0,20.47007425124841,0.3773986829823491,0.012322089819213705,10.895930148315246,0.6031339781973022
26.0,20.473899712190317,0.3775886606470453,0.012318459910061082,10.895405913145495,0.6031451015953857
27.0,20.47772544151183,0.37777870410160147,0.012314829415908621,10.894881613610448,0.603156237921061
28.0,20.481551438934503,0.3779688133050992,0.012311199014158995,10.894357249750255,0.6031673958329261
29.0,20.485377704179637,0.37815898821653615,0.012307568715304449,10.893832821604802,0.6031785182654076
30.0,20.489204236968245,0.3783492287948176,0.012303938527381177,10.893308329213776,0.6031895616722749
31.0,20.493031037021048,0.3785395349987293,0.012300308026449264,10.892783772620806,0.6032006086509013
32.0,20.496858104058422,0.37872990678697005,0.01229667725903824,10.892259151862685,0.6032116314230885
33.0,20.500685437800428,0.37892034411812675,0.012293046600615348,10.89173446697865,0.603222655201119
34.0,20.504513037966735,0.37911084695068503,0.012289415814252504,10.891209718007229,0.6032337512965993
35.0,20.50834090427665,0.3793014152430139,0.01228578458700927,10.890684904981832,0.6032449130681518
36.0,20.512169036449095,0.3794920489533819,0.012282152592569916,10.890160027946015,0.6032561450635162
37.0,20.515997434202603,0.3796827480399443,0.012278519960750084,10.889635086947273,0.6032673146829183
38.0,20.51982609725535,0.37987351246075257,0.012274887373570686,10.889110082025011,0.6032786091588548
39.0,20.523655025325077,0.38006434217373536,0.012271254862417246,10.888585013218187,0.6032899141134503
40.0,20.527484218129153,0.38025523713673137,0.012267622428779762,10.888059880565786,0.6033011741766503
41.0,20.531313675366363,0.3804461973066407,0.01226398976130828,10.887534684110031,0.6033123543217644
42.0,20.53514339674512,0.38063722264071626,0.012260357024886303,10.887009423891419,0.6033235348049572
43.0,20.538973381982256,0.3808283130964775,0.012256724370837172,10.886484099948948,0.603334649571512
44.0,20.542803630794218,0.38101946863133285,0.01225309180024819,10.885958712321669,0.6033457277678431
45.0,20.546634142897044,0.3812106892025846,0.012249459314044137,10.88543326104869,0.6033567475213106
46.0,20.55046491800635,0.38140197476741894,0.012245826913008743,10.884907746169182,0.6033677259736991
47.0,20.55429595583359,0.3815933252827828,0.012242194534769534,10.884382167719526,0.6033786286938077
48.0,20.558127256091332,0.3817847407055721,0.012238562199366273,10.883856525737288,0.6033894554221277
49.0,20.561958818494034,0.3819762209926341,0.012234929944308878,10.883330820261843,0.6034001983404524
50.0,20.565790642755772,0.3821677661007132,0.012231297770095257,10.882805051332626,0.6034108733732493
51.0,20.569622728590172,0.38235937598643455,0.012227665567583495,10.88227921898911,0.6034214922942889
52.0,20.573455075710505,0.3825510506063272,0.012224033416721602,10.88175332327086,0.6034321737332209
53.0,20.577287683829585,0.3827427899167821,0.012220401267832363,10.881227364218569,0.6034427211317062
54.0,20.581120552659833,0.3829345938741002,0.012216769093797921,10.880701341873337,0.6034531200623803
55.0,20.584953681913262,0.38312646243445414,0.012213136997335878,10.880175256274937,0.6034634597491184
56.0,20.588787071301475,0.38331839555391395,0.012209504978903005,10.87964910746322,0.6034738286073262
57.0,20.592620720535635,0.3835103931884356,0.012205872917231568,10.879122895478528,0.6034842104673792
58.0,20.59645462932652,0.38370245529386054,0.012202240867542576,10.878596620361082,0.6034947551810783
59.0,20.60028879738448,0.38389458182591074,0.012198608897924335,10.878070282150945,0.6035051586939495
60.0,20.60412322441945,0.3840867727402056,0.012194977008878975,10.877543880888268,0.6035154667921011
61.0,20.607957910140954,0.3842790279922499,0.01219134520088351,10.877017416613274,0.6035257405001199
62.0,20.61179285425808,0.3844713475374275,0.01218771347439148,10.876490889366268,0.6035358736929611
63.0,20.615628056479526,0.38466373133101306,0.012184081829834648,10.875964299187638,0.6035459808709392
64.0,20.619463516513555,0.38485617932817345,0.012180450267624439,10.875437646117852,0.6035563040775603
65.0,20.623299234068018,0.38504869148395127,0.012176818788152927,10.87491093019746,0.60356621305358
66.0,20.627135208850333,0.38524126775328577,0.012173187391793967,10.874384151467094,0.6035758046328651
67.0,20.63097144056752,0.3854339080909987,0.012169556078904032,10.87385730996747,0.6035852540546065
68.0,20.634807928926172,0.38562661245179464,0.01216592484982287,10.873330405739383,0.6035954345548751
69.0,20.63864467363244,0.38581938079026584,0.012162293697843886,10.872803438823766,0.6036058546884372
70.0,20.642481674392098,0.38601221306090777,0.012158662508606926,10.872276409262463,0.6036160877987539
71.0,20.64631893091045,0.38620510921807366,0.012155031407878495,10.871749317096477,0.6036261692044884
72.0,20.650156442892413,0.38639806921601894,0.012151400395983697,10.871222162366891,0.6036359835821231
73.0,20.65399421004247,0.38659109300887873,0.01214776947322888,10.87069494511488,0.60364690750078
74.0,20.657832232064678,0.38678418055068914,0.012144138639901568,10.870167665381702,0.6036566513467545
75.0,20.661670508662677,0.38697733179535776,0.01214050789627067,10.869640323208696,0.6036664529750475
76.0,20.665509039539685,0.3871705466966771,0.01213687724258666,10.869112918637288,0.6036761004000245
77.0,20.669347824398493,0.3873638252083355,0.012133246679081834,10.868585451708995,0.6036854848983957
78.0,20.673186862941456,0.3875571672839016,0.01212961620597024,10.868057922465413,0.6036948535316189
79.0,20.677026154870536,0.38775057287682774,0.012125985823448041,10.867530330948227,0.603704258744569
80.0,20.68086569988724,0.387944041940459,0.012122355531693326,10.867002677199208,0.6037140146044349
81.0,20.684705497692665,0.3881375744280158,0.012118725330866286,10.866474961260213,0.6037244711153185
82.0,20.688545547987477,0.38833117029261865,0.012115095221109293,10.865947183173187,0.6037353287470334
83.0,20.69238585047192,0.3885248294872598,0.01211146520254682,10.865419342980159,0.6037455248724661
84.0,20.696226404845813,0.3887185519648206,0.012107835275285568,10.864891440723246,0.603755119063638
85.0,20.700067210808545,0.38891233767808203,0.012104205439414352,10.864363476444655,0.603765246020702
86.0,20.703908268059074,0.38910618657968604,0.012100575695004247,10.863835450186675,0.6037755590770483
87.0,20.70774957629594,0.3893000986221819,0.012096946042108573,10.863307361991687,0.6037859163188727
88.0,20.711591135217265,0.3894940737579913,0.012093316480762829,10.862779211902156,0.6037963120998614
89.0,20.715432944520707,0.38968811193942227,0.012089687010984814,10.862250999960636,0.6038066937745346
90.0,20.71927500390355,0.3898822131186776,0.012086057632774651,10.86172272620977,0.6038175972175324
91.0,20.723117313062602,0.390076377247838,0.012082428346114785,10.861194390692283,0.6038285921904558
92.0,20.726959871694262,0.3902706042788717,0.012078799150970041,10.860665993450999,0.6038394457061905
93.0,20.730802679494502,0.3904648941636275,0.012075170047287764,10.860137534528816,0.6038502515460685
94.0,20.73464573615887,0.3906592468538432,0.012071541034997734,10.859609013968734,0.6038613094793891
95.0,20.73848904138248,0.39085366230114826,0.012067912114012345,10.859080431813831,0.603872535490975
96.0,20.74233259486,0.39104814045704783,0.012064283284226717,10.858551788107278,0.603883588909899
97.0,20.74617639628569,0.39124268127293194,0.012060654545518761,10.858023082892334,0.6038944576470566
98.0,20.750020445353393,0.3914372847000856,0.012057025897749329,10.857494316212346,0.6039050680750498
99.0,20.753864741756484,0.391631950689667,0.012053397340762243,10.85696548811075,0.6039157249149308
100.0,20.75770928518793,0.39182667919272873,0.012049768874384616,10.85643659863107,0.6039267230892892
101.0,20.761554075340275,0.39202147016020333,0.012046140498426835,10.855907647816922,0.6039380443372583
102.0,20.765399111905616,0.39221632354291264,0.012042512212682923,10.855378635712004,0.603949750328796
103.0,20.769244394575633,0.39241123929155725,0.012038884016930543,10.85484956236011,0.6039604414677958
104.0,20.773089923041567,0.39260621735673346,0.012035255910931294,10.854320427805122,0.6039695182741316
105.0,20.77693569699423,0.392801257688902,0.012031627894431,10.853791232091007,0.6039799696389233
106.0,20.780781716124004,0.3929963602384376,0.012027999967159786,10.853261975261823,0.6039907034857607
107.0,20.78462798012085,0.39319152495557463,0.012024372128832441,10.852732657361722,0.6040012538506714
108.0,20.78847448867428,0.39338675179044474,0.012020744379148667,10.852203278434938,0.6040116402012062
109.0,20.79232124147338,0.3935820406930615,0.012017116717793368,10.8516738385258,0.6040222348327222
110.0,20.796168238206818,0.3937773916133283,0.012013489144436866,10.851144337678722,0.6040328907876766
111.0,20.800015478562813,0.3939728045010225,0.012009861658243156,10.850614775938213,0.6040438440940578
112.0,20.803862962229168,0.3941682793058167,0.012006234257765864,10.850085153348871,0.6040553459769592
113.0,20.807710688893245,0.39436381597726444,0.012002606942720857,10.849555469955382,0.6040679624538389
114.0,20.811558658241974,0.3945594144648064,0.011998979712812096,10.84902572580252,0.6040805070050084
115.0,20.815406869961866,0.39475507471776194,0.011995352567731545,10.848495920935152,0.6040929262935681
116.0,20.81925532373889,0.3949507966853341,0.011991725504989777,10.847966055398235,0.6041054809695149
117.0,20.823104019258572,0.3951465803166199,0.011988098523891223,10.847436129236813,0.6041181013501916
118.0,20.826952956206014,0.39534242556058447,0.011984471624224875,10.846906142496023,0.6041308587563687
119.0,20.83080213426591,0.39553833236608593,0.011980844805771211,10.846376095221082,0.6041396671056275
120.0,20.83465155312251,0.39573430068187143,0.011977218068302238,10.845845987457302,0.6041513703101314
121.0,20.838501212459647,0.3959303304565677,0.011973591411581502,10.845315819250077,0.6041630360945855
122.0,20.842351111960745,0.39612642163869144,0.01196996482934819,10.844785590644959,0.6041744780096071
123.0,20.846201251308795,0.39632257417664074,0.011966338320629167,10.844255301687589,0.6041858907159678
124.0,20.850051630186357,0.39651878801869994,0.011962711885193716,10.8437249524237,0.6041974038534842
125.0,20.853902248274807,0.3967150631130773,0.011959085479894617,10.843194542897773,0.6042087706637342
126.0,20.85775310525549,0.3969113994078435,0.011955459124858157,10.84266407315505,0.6042199309243185
127.0,20.861604200809776,0.3971077968509446,0.011951832841673758,10.842133543241545,0.6042308888919514
128.0,20.865455534618572,0.3973042553902107,0.011948206630179809,10.841602953203365,0.604241752195357
129.0,20.869307106362392,0.3975007749733525,0.011944580490212388,10.841072303086703,0.6042525193072324
130.0,20.87315891572132,0.3976973555479663,0.011940954400296066,10.840541592936136,0.6042630655226159
131.0,20.877010962375007,0.39789399706154044,0.011937328365462513,10.840010822797005,0.6042738188381193
132.0,20.880863246002686,0.3980906994614422,0.011933702398013777,10.83947999271578,0.6042857514629966
133.0,20.884715766283172,0.39828746269492776,0.011930076497831076,10.83894910273903,0.604296661197521
134.0,20.888568522894854,0.3984842867091329,0.011926450664795432,10.8384181529134,0.6043072807219848
135.0,20.892421515515696,0.3986811714510861,0.011922824878829728,10.837887143284219,0.6043175982878345
136.0,20.89627474382325,0.39887811686769353,0.011919199144933194,10.837356073897622,0.6043275722695886
137.0,20.900128207494618,0.39907512290575875,0.011915573466937843,10.83682494480062,0.6043382229831012
138.0,20.903981906206518,0.3992721895119567,0.011911947844805735,10.836293756040316,0.6043487453977393
139.0,20.907835839634693,0.3994693166326953,0.011908322202097501,10.83576250766111,0.6043591342078698
140.0,20.911690007454823,0.39966650421436306,0.011904696581604887,10.835231199709186,0.6043692992741204
141.0,20.915544409342424,0.3998637522033132,0.011901071013809985,10.834699832232019,0.6043791252211317
142.0,20.91939904497256,0.4000610605457802,0.011897445498852483,10.834168405277183,0.6043889513673596
143.0,20.923253914019895,0.4002584291878845,0.011893820021816125,10.833636918891766,0.6043990226601771
144.0,20.927109016158663,0.4004558580756361,0.011890194573544845,10.83310537312264,0.6044088120452787
145.0,20.93096435106267,0.40065334715492146,0.011886569177686008,10.832573768017653,0.6044187897723808
146.0,20.934819918405303,0.4008508963715187,0.011882943834445202,10.832042103624744,0.6044287308689819
147.0,20.938675717859518,0.401048505671094,0.011879318544034992,10.831510379991945,0.6044385267626585
148.0,20.94253174909786,0.4012461749991896,0.011875693306674503,10.830978597167382,0.6044482592616057
149.0,20.946388011792454,0.40144390430124477,0.01187206812258903,10.830446755199269,0.6044577861969148
150.0,20.950244505614094,0.4016416935224633,0.011868442969243177,10.829914854134204,0.6044671540606098
151.0,20.95410123023391,0.4018395426080386,0.011864817865041994,10.82938289402027,0.6044766758325361
152.0,20.957958185322745,0.402037451503056,0.011861192814545162,10.828850874905964,0.6044859382461345
153.0,20.961815370551072,0.40223542015249314,0.011857567811966296,10.828318796839879,0.6044949584377061
154.0,20.965672785588882,0.4024334485012107,0.01185394285588812,10.827786659870698,0.6045037813057162
155.0,20.969530430105777,0.40263153649395617,0.01185031794668413,10.827254464047199,0.604514035786253
156.0,20.97338830377094,0.4028296840753596,0.011846693081118232,10.826722209418294,0.6045247349853377
157.0,20.9772464062531,0.4030278911899401,0.011843068256271507,10.826189896033029,0.6045360352110668
158.0,20.98110473722059,0.4032261577821025,0.011839443472592689,10.825657523940533,0.6045472482803419
159.0,20.984963296341306,0.40342448379613466,0.011835818729719052,10.825125093190046,0.6045583041050563
160.0,20.98882208328274,0.40362286917621387,0.01183219402330855,10.824592603830897,0.6045693272138813
161.0,20.992681097711934,0.40382131386639464,0.011828569353796125,10.824060055912515,0.6045803158877469
162.0,20.996540339295528,0.4040198178106313,0.011824944721709989,10.823527449484413,0.6045912600568806
163.0,21.000399807699715,0.40421838095274626,0.01182132012759531,10.8229947845962,0.6046019688987465
164.0,21.004259502590305,0.40441700323646246,0.011817695572013679,10.822462061297577,0.604612512563553
165.0,21.008119423632643,0.40461568460538205,0.011814071055485346,10.821929279638333,0.6046230052001148
166.0,21.01197957049167,0.40481442500299075,0.011810446577311808,10.821396439668371,0.6046329873821329
167.0,21.01583994283191,0.4050132243726692,0.01180682213810658,10.820863541437681,0.6046428399802602
168.0,21.01970054031745,0.40521208265766373,0.011803197738497617,10.820330584996347,0.6046527041536754
169.0,21.023561362611964,0.4054109998011351,0.011799573379126634,10.819797570394543,0.604662911300407
170.0,21.027422409378694,0.405609975746112,0.01179594902909284,10.819264497682347,0.6046731004971825
171.0,21.03128368028048,0.4058090104355081,0.011792324712798372,10.818731366910074,0.6046830988777396
172.0,21.035145174979718,0.4060081038121288,0.011788700409988456,10.818198178127432,0.6046929740258021
173.0,21.039006893138392,0.40620725581866646,0.011785076141325212,10.817664931384938,0.6047028530915858
174.0,21.042868834418055,0.4064064663976934,0.011781451907713783,10.817131626733193,0.6047128802895744
175.0,21.046730998479855,0.40660573549167633,0.011777827695562317,10.81659826422237,0.6047229189801243
176.0,21.05059338498449,0.40680506304295866,0.011774203504842016,10.81606484390269,0.604733182886034
177.0,21.05445599359227,0.4070044489937768,0.01177057935227348,10.815531365825054,0.6047435488138732
178.0,21.058318823963056,0.40720389328625145,0.01176695523885661,10.814997830040442,0.6047537257293286
179.0,21.062181875756295,0.40740339586239077,0.01176333116560604,10.814464236599928,0.6047639079275923
180.0,21.06604514863101,0.40760295666408314,0.011759707119322553,10.813930585554301,0.6047740513278553
181.0,21.069908642245807,0.407802575633115,0.011756083102031613,10.81339687695447,0.60478395198344
182.0,21.07377235625887,0.40800225271115104,0.011752459128336662,10.812863110851797,0.6047935512790991
183.0,21.077636290326943,0.40820198783951883,0.011748835189335243,10.812329287297676,0.604803125127353
184.0,21.081500444104336,0.40840178095902585,0.011745211266149485,10.811795406343464,0.6048141319944698
185.0,21.08536481724803,0.40860163201100486,0.011741587389577073,10.811261468040792,0.6048249617466522
186.0,21.089229409416156,0.40880154093673254,0.011737963529204596,10.810727472440165,0.6048355159039489
187.0,21.093094220265588,0.40900150767733906,0.011734339689083991,10.810193419592204,0.6048458720409282
188.0,21.096959249452226,0.409201532173839,0.011730715876874395,10.809659309548513,0.6048560416741793
189.0,21.10082449663155,0.4094016143671171,0.011727092094244163,10.809125142360832,0.6048661731933603
190.0,21.10468996145862,0.4096017541979516,0.011723468353649,10.80859091808129,0.6048763893209316
191.0,21.10855564358811,0.4098019516070077,0.011719844656319976,10.80805663676211,0.6048863821567564
192.0,21.11242154267423,0.41000220653484115,0.011716221003497142,10.80752229845561,0.6048963189595022
