k,PSNR,SSIM,mse,Log-Gradient,Angle
0.0,20.37520401439055,0.37270676760468385,0.0,10.908924819239388,0.5997680935976326
1.0,20.37838200344686,0.3728613169438593,0.01011790633053658,10.908487271469339,0.6028585960593905
2.0,20.382166921256903,0.3730477141239004,0.012236782318033075,10.907969117680237,0.6028984398960888
3.0,20.385981619034936,0.3732358876783099,0.012373553698311165,10.90744701354385,0.6029132703050539
4.0,20.38979899799206,0.3734242866750574,0.012386394916481467,10.906924515614358,0.6029181661112116
5.0,20.39361676295586,0.3736127683620367,0.012385718842081585,10.90640193058486,0.6029200502397615
6.0,20.39743455608768,0.3738013079069869,0.012382349451065628,10.905879308931715,0.6029264472500697
7.0,20.401252292447047,0.3739898990673229,0.012378153594508183,10.905356664057603,0.6029324070737102
8.0,20.405069947599213,0.3741785398445001,0.012373666094202807,10.90483400062634,0.6029426018128827
9.0,20.40888751250001,0.3743672294917624,0.012369055474137938,10.90431132057206,0.6029535013731503
10.0,20.412704983118353,0.37455596761979887,0.012364384839839215,10.903788624828014,0.6029641184631717
11.0,20.416522357452518,0.37474475398525336,0.01235966892778923,10.903265914034776,0.6029752993148757
12.0,20.420339633706647,0.3749335884021063,0.012354912398999973,10.902743188632567,0.6029870553105109
13.0,20.42415681075846,0.37512247072794075,0.012350137101612677,10.902220448867606,0.6029988522653263
14.0,20.427973887914717,0.3753114008701528,0.012345349295706114,10.901697694983206,0.603010360325113
15.0,20.43179086461734,0.37550037875135844,0.012340555130043679,10.901174927149603,0.6030217066996316
16.0,20.435607740342494,0.3756894042973446,0.012335755507335754,10.900652145510387,0.6030328798733479
17.0,20.439424514617794,0.37587847743506747,0.01233095423244442,10.900129350172383,0.6030440252883073
18.0,20.443241186971207,0.37606759809469664,0.012326148112139938,10.899606541241619,0.6030551216539365
19.0,20.447057756957292,0.37625676620871246,0.012321339342406508,10.899083718810994,0.6030662600430132
20.0,20.450874224166334,0.37644598171445187,0.01231653049647287,10.898560882961569,0.6030774396739415
21.0,20.454690588087914,0.37663524453976155,0.012311719665338072,10.898038033772956,0.6030887020759511
22.0,20.458506848307945,0.37682455462121595,0.01230690477163108,10.897515171356675,0.6030999801806701
23.0,20.462323004369615,0.37701391189084843,0.012302089808772291,10.896992295790152,0.6031112429077029
24.0,20.46613905585076,0.3772033162844983,0.012297274772795836,10.896469407146578,0.6031224622493822
25.0,20.46995500235086,0.3773927677400024,0.012292460457779548,10.89594650549622,0.6031336338245266
26.0,20.47377084345511,0.3775822661929758,0.012287645564231914,10.895423590917156,0.6031447316221001
27.0,20.477586578765013,0.3777718115814382,0.012282830910764805,10.894900663481328,0.6031558351588263
28.0,20.481402207882084,0.3779614038433469,0.01227801717467689,10.894377723256788,0.6031669652319971
29.0,20.485217730407786,0.37815104291658647,0.012273204366553377,10.893854770311307,0.6031780576642644
30.0,20.489033145943502,0.37834072873896146,0.012268392494522058,10.89333180471244,0.6031890696896615
31.0,20.49284845409051,0.3785304612482155,0.012263581132330744,10.892808826531692,0.6032000852194427
32.0,20.496663654449957,0.37872024038200464,0.012258770330050878,10.892285835833642,0.6032110724929369
33.0,20.500478746622882,0.3789100660779116,0.01225396046217908,10.891762832685332,0.6032220632606886
34.0,20.504293730210108,0.3790999382734328,0.012249151291352034,10.89123981715307,0.6032331115866522
35.0,20.508108604812346,0.3792898569059953,0.01224434250390808,10.89071678929802,0.6032442371086738
36.0,20.511923370030086,0.37947982191293234,0.012239533771046484,10.890193749191495,0.603255426677802
37.0,20.51573802546365,0.3796698332315058,0.012234725226375734,10.889670696908711,0.6032665590820709
38.0,20.519552570713202,0.3798598907988883,0.012229917553594753,10.889147632516748,0.603277801762227
39.0,20.523367005378688,0.3800499945521687,0.012225110782766722,10.888624556082227,0.603289065254881
40.0,20.527181329059886,0.3802401444283537,0.012220304915467753,10.888101467671786,0.6033002900817345
41.0,20.53099554133796,0.3804303403635558,0.012215499636128302,10.887578367355314,0.6033114290238512
42.0,20.534809641804333,0.38062058229426426,0.012210695117259102,10.88705525520087,0.6033225657793376
43.0,20.5386236300589,0.38081087015726806,0.012205891507035204,10.88653213127504,0.6033336393294707
44.0,20.542437505701315,0.38100120388926256,0.012201088806630256,10.886008995644431,0.6033446731084152
45.0,20.546251268331062,0.3811915834268713,0.012196287017055586,10.88548584837569,0.6033556449729333
46.0,20.55006491754742,0.3813820087066307,0.012191486139181805,10.884962689535502,0.6033665852853926
47.0,20.553878452945735,0.3815724796648617,0.012186686110988946,10.88443951918777,0.6033774458332622
48.0,20.557691874122614,0.38176299623785964,0.012181886951452723,10.883916337397505,0.603388227825305
49.0,20.561505180676804,0.3819535583619069,0.012177088699045064,10.88339314423152,0.6033989269270651
50.0,20.565318372206868,0.3821441659732065,0.012172291354352565,10.882869939756683,0.6034095666479131
51.0,20.569131448311147,0.3823348190078755,0.012167494808039222,10.882346724039863,0.6034201263599751
52.0,20.57294440858781,0.3825255174019547,0.012162699140162976,10.881823497148007,0.6034307661520412
53.0,20.576757252634806,0.38271626109138474,0.012157904300580608,10.881300259149164,0.6034412803013877
54.0,20.5805699800499,0.3829070500120404,0.01215311026329745,10.880777010111762,0.6034516417683256
55.0,20.58438259043067,0.3830978840997052,0.012148317130898185,10.880253750102883,0.6034619177260667
56.0,20.588195083374462,0.3832887632900724,0.012143524903930692,10.87973047918966,0.6034722436692549
57.0,20.59200745847845,0.3834796875187669,0.01213873345826367,10.879207197439708,0.6034825426030713
58.0,20.59581971533959,0.38367065672131123,0.01213394285446604,10.878683904920472,0.6034930243781983
59.0,20.599631853554655,0.38386167083316614,0.012129153158418338,10.87816060169923,0.603503387723909
60.0,20.6034438727202,0.3840527297896903,0.012124364370715414,10.87763728784332,0.6035136509576059
61.0,20.60725577243259,0.3842438335261686,0.012119576491927317,10.877113963420134,0.6035238719441485
62.0,20.611067552287995,0.38443498197779885,0.012114789522601135,10.876590628497116,0.6035339693080656
63.0,20.61487921188238,0.38462617507969815,0.012110003463262558,10.87606728314177,0.6035439465716143
64.0,20.618690750811485,0.38481741276689396,0.01210521831441731,10.875543927421656,0.6035542585276569
65.0,20.6225021686709,0.38500869497434365,0.012100434076552343,10.875020561404396,0.6035641760137204
66.0,20.626313465055965,0.38520002163690853,0.012095650750136654,10.87449718515766,0.603573769367877
67.0,20.63012463956185,0.3853913926893692,0.01209086833562234,10.873973798749185,0.603583158756735
68.0,20.63393569178352,0.3855828080664305,0.012086086833445184,10.873450402246762,0.6035930192926808
69.0,20.637746621315728,0.3857742677027076,0.01208130622569691,10.872926995718375,0.6036034298390919
70.0,20.641557427753035,0.3859657715327343,0.012076526419840987,10.872403579232731,0.6036136230331565
71.0,20.645368110689798,0.3861573194909582,0.012071747531315846,10.871880152857754,0.603623661431624
72.0,20.64917866972018,0.3863489115117527,0.012066969560544788,10.871356716661424,0.603633433840831
73.0,20.652989104438145,0.3865405475294034,0.012062192507932834,10.870833270711781,0.6036442951505184
74.0,20.656799414437444,0.38673222747810837,0.012057416373866571,10.870309815076926,0.6036539748722309
75.0,20.660609599311638,0.3869239512919928,0.01205264115871462,10.869786349825016,0.603663732076247
76.0,20.664419658654086,0.38711571890509267,0.012047866862827541,10.86926287502427,0.6036733610092961
77.0,20.668229592057948,0.3873075302513577,0.012043093486538186,10.86873939074297,0.6036827519500397
78.0,20.672039399116187,0.3874993852646696,0.01203832103016177,10.868215897049454,0.6036920470311713
79.0,20.67584907942156,0.38769128387881663,0.012033549493996026,10.86769239401212,0.6037013463140227
80.0,20.679658632566635,0.38788322602750364,0.01202877887832119,10.86716888169943,0.6037108064707782
81.0,20.683468058143774,0.3880752116443577,0.012024009183400106,10.8666453601799,0.6037210375256314
82.0,20.687277355745127,0.3882672406629282,0.01201924040947822,10.866121829522113,0.6037316561277987
83.0,20.69108652496267,0.3884593130166714,0.012014472556783728,10.865598289794708,0.6037423184775785
84.0,20.694895565388173,0.3886514286389653,0.012009705625527431,10.865074741066385,0.6037516427502724
85.0,20.698704476613198,0.38884358746311326,0.012004939615902882,10.864551183405906,0.6037615872500777
86.0,20.70251325822911,0.38903578942233247,0.012000174528086383,10.864027616882092,0.6037717558321031
87.0,20.70632190982709,0.38922803444975496,0.011995410362236947,10.863504041563825,0.6037820313792966
88.0,20.710130430998102,0.3894203224784323,0.011990647118496357,10.862980457520049,0.6037923263477468
89.0,20.713938821332928,0.3896126534413354,0.011985884796989227,10.862456864819766,0.603802580469338
90.0,20.717747080422136,0.38980502727135885,0.011981123397823038,10.861933263532038,0.6038132009095527
91.0,20.721555207856127,0.38999744390130786,0.011976362921088082,10.861409653725993,0.6038240814990612
92.0,20.725363203225065,0.39018990326391045,0.011971603366857595,10.860886035470811,0.603834906439102
93.0,20.72917106611895,0.39038240529181073,0.011966844735187825,10.86036240883574,0.60384565181953
94.0,20.73297879612757,0.3905749499175751,0.011962087026118133,10.859838773890088,0.6038563618619418
95.0,20.736786392840514,0.3907675370736909,0.011957330239670867,10.85931513070322,0.6038675241854086
96.0,20.740593855847184,0.3909601666925567,0.01195257437585182,10.858791479344562,0.6038785655101048
97.0,20.744401184736788,0.3911528387064931,0.011947819434649988,10.858267819883602,0.6038894065164979
98.0,20.748208379098326,0.3913455530477448,0.011943065416037898,10.85774415238989,0.6039000623529018
99.0,20.752015438520615,0.3915383096484748,0.01193831231997163,10.857220476933033,0.6039104647601262
100.0,20.75582236259227,0.3917311084407542,0.011933560146391128,10.856696793582703,0.6039212312759686
101.0,20.759629150901716,0.39192394935659053,0.011928808895220078,10.856173102408627,0.6039322408088704
102.0,20.763435803037183,0.3921168323278989,0.01192405856636643,10.855649403480598,0.6039437604363137
103.0,20.7672423185867,0.3923097572865166,0.011919309159722294,10.855125696868464,0.6039549864879513
104.0,20.77104869713812,0.39250272416420945,0.011914560675164337,10.85460198264214,0.603964827695978
105.0,20.77485493827908,0.39269573289264637,0.01190981311255391,10.854078260871596,0.6039738427811024
106.0,20.778661041597047,0.3928887834034322,0.011905066471737304,10.853554531626864,0.6039846983199163
107.0,20.78246700667927,0.39308187562808045,0.011900320752546016,10.853030794978036,0.603995283222768
108.0,20.78627283311283,0.3932750094980375,0.011895575954797004,10.852507050995266,0.6040056304314901
109.0,20.790078520484606,0.3934681849446551,0.011890832078293008,10.851983299748765,0.6040159331490041
110.0,20.79388406838128,0.39366140189921367,0.011886089122822704,10.851459541308808,0.6040264986143297
111.0,20.797689476389365,0.39385466029291566,0.011881347088161255,10.850935775745725,0.6040371257508853
112.0,20.80149474409516,0.3940479600568756,0.011876605972605378,10.850412003129916,0.6040480265703161
113.0,20.805299871084774,0.3942413011221418,0.011871865775850914,10.849888223531835,0.6040599598195674
114.0,20.809104856944145,0.39443468341967164,0.011867126497721002,10.849364437021993,0.6040724019801654
115.0,20.812909701259017,0.39462810688034883,0.011862388138027482,10.848840643670968,0.6040847414158509
116.0,20.81671440361488,0.3948215714349786,0.011857650695707033,10.84831684354939,0.6040970479835353
117.0,20.82051896359701,0.3950150770142737,0.011852914168837388,10.847793036727959,0.6041094974165128
118.0,20.82432338079046,0.3952086235488819,0.011848178557325992,10.847269223277422,0.6041219982786973
119.0,20.828127654780122,0.39540221096936046,0.011843443861072446,10.846745403268594,0.6041338425845634
120.0,20.831931785150708,0.39559583920619773,0.011838710079968527,10.846221576772338,0.6041430011846172
121.0,20.835735771486753,0.3957895081898009,0.011833977213898216,10.845697743859583,0.6041545421007194
122.0,20.839539613372622,0.39598321785049756,0.011829245261049512,10.845173904601328,0.6041660128732175
123.0,20.84334331039249,0.3961769681185388,0.011824514216299197,10.844650059068682,0.6041772708381824
124.0,20.84714686213036,0.39637075892409807,0.011819784079536341,10.844126207332813,0.6041886071515034
125.0,20.850950268169726,0.39656459019728413,0.011815054832281176,10.84360234946438,0.6041999774038754
126.0,20.854753528093447,0.39675846186816255,0.011810326445425392,10.843078485533233,0.6042111549097703
127.0,20.85855664148504,0.39695237386667026,0.01180559896550039,10.842554615610732,0.6042221338349864
128.0,20.862359607927857,0.39714632612267886,0.011800872392467049,10.842030739768292,0.6042329199385178
129.0,20.86616242700508,0.3973403185659696,0.011796146726284701,10.84150685807739,0.6042436481948047
130.0,20.869965098299723,0.39753435112626034,0.011791421957758548,10.84098297060882,0.6042542315397533
131.0,20.873767621394606,0.39772842373318457,0.011786698068643303,10.840459077432183,0.6042646012908203
132.0,20.8775699958724,0.3979225363163041,0.011781975082627277,10.839935178619136,0.6042753405761583
133.0,20.881372221315576,0.3981166888051008,0.01177725299971733,10.839411274241394,0.6042871330363321
134.0,20.88517429730647,0.3983108811289742,0.011772531819920778,10.838887364370734,0.6042977317699496
135.0,20.88897622342722,0.3985051132172576,0.01176781153404975,10.838363449078349,0.6043082513506176
136.0,20.8927779992598,0.39869938499920493,0.011763092128716452,10.837839528434634,0.6043183826600386
137.0,20.89657962438601,0.3988936964039902,0.011758373620409596,10.837315602511584,0.6043282582990985
138.0,20.90038109838749,0.39908804736071773,0.011753656004530467,10.83679167138129,0.6043387589131092
139.0,20.9041824208456,0.3992824377983745,0.011748939264226817,10.836267735115268,0.6043491249983998
140.0,20.907983591341043,0.3994768676457294,0.011744223324291165,10.835743793782479,0.6043593555688348
141.0,20.911784609455026,0.3996713368316627,0.011739508275619837,10.835219847455273,0.6043693741673243
142.0,20.915585474768577,0.39986584528498775,0.011734794116888995,10.834695896206076,0.6043790568688094
143.0,20.919386186862564,0.40006039293444046,0.011730080848371465,10.83417194010738,0.6043887345376787
144.0,20.92318674531768,0.40025497970868146,0.01172536843258822,10.833647979230358,0.6043986681314311
145.0,20.92698714971446,0.40044960553629955,0.011720656904745587,10.833124013647554,0.6044082875491766
146.0,20.930787399633278,0.4006442703457998,0.011715946267136708,10.832600043431635,0.6044181865755464
147.0,20.93458749465431,0.40083897406562174,0.011711236520102643,10.832076068655326,0.6044280084341592
148.0,20.938387434357622,0.4010337166241247,0.011706527663991828,10.831552089391415,0.6044376766760324
149.0,20.94218721832306,0.40122849794959,0.011701819699159599,10.831028105712745,0.6044472745563765
150.0,20.945986846129987,0.40142331797019626,0.011697112616773427,10.830504117691543,0.604456687162238
151.0,20.949786317357272,0.4016181766139924,0.011692406407887828,10.82998012539943,0.6044659183041832
152.0,20.953585631584303,0.4018130738090457,0.011687701091105934,10.829456128909431,0.6044753181055663
153.0,20.957384788390314,0.4020080094833423,0.011682996666837158,10.828932128294628,0.6044844942809817
154.0,20.96118378735438,0.4022029835648036,0.011678293129685869,10.828408123628162,0.6044934216062002
155.0,20.9649826280554,0.40239799598126513,0.011673590478251925,10.827884114983235,0.6045021234990772
156.0,20.968781310072128,0.4025930466604975,0.011668888713049098,10.827360102433103,0.6045118251876737
157.0,20.972579832983147,0.4027881355301998,0.011664187831994303,10.826836086051115,0.6045222781506224
158.0,20.976378196366873,0.4029832625179844,0.011659487831398684,10.826312065910725,0.6045333149952031
159.0,20.98017639980158,0.40317842755140654,0.011654788711851589,10.825788042085444,0.6045444092921607
160.0,20.983974442865367,0.40337363055793807,0.01165009047324973,10.825264014648846,0.6045553078697449
161.0,20.987772325136177,0.4035688714649759,0.0116453931114966,10.824739983674572,0.6045661441305737
162.0,20.991570046191804,0.4037641501998593,0.011640696627021576,10.82421594923632,0.6045769591363356
163.0,20.99536760560987,0.4039594666898354,0.011636001020494875,10.823691911407838,0.6045877120564328
164.0,20.99916500296785,0.4041548208620854,0.011631306292604029,10.82316787026294,0.6045983596935308
165.0,21.00296223784305,0.404350212643728,0.011626612444052917,10.822643825875488,0.6046086966174223
166.0,21.006759309812626,0.4045456419617981,0.011621919475405331,10.822119778319406,0.604619126593695
167.0,21.010556218453594,0.4047411087432584,0.011617227386220773,10.82159572766869,0.6046290954769317
168.0,21.01435296334278,0.40493661291500205,0.011612536177256142,10.821071673997384,0.6046387943283954
169.0,21.018149544056882,0.40513215440385714,0.011607845849282877,10.8205476173796,0.6046484550244823
170.0,21.021945960172435,0.40532773313656434,0.01160315640161861,10.820023557889487,0.6046582611867518
171.0,21.025742211265815,0.40552334903981285,0.011598467804380466,10.81949949560105,0.6046683200282165
172.0,21.029538296913262,0.4057190020402013,0.011593780085428336,10.818975430588525,0.6046782107289878
173.0,21.03333421669084,0.4059146920642644,0.011589093224468666,10.818451362925519,0.6046879297008505
174.0,21.037129970174476,0.40611041903847095,0.01158440723991025,10.81792729268639,0.6046975998020113
175.0,21.040925556939936,0.4063061828892136,0.011579722132796264,10.817403219945549,0.6047073924512627
176.0,21.044720976562846,0.40650198354280936,0.011575037889905894,10.81687914477695,0.6047171700564777
177.0,21.04851622861868,0.4066978209255156,0.011570354511062253,10.81635506725457,0.6047270287873073
178.0,21.052311312682743,0.4068936949635138,0.011565672013205578,10.815830987452992,0.6047372677619408
179.0,21.056106228330208,0.4070896055829068,0.011560990397473431,10.815306905446864,0.6047473483464276
180.0,21.059900975136095,0.40728555270974137,0.011556309665018229,10.814782821310883,0.6047572758204008
181.0,21.063695552675266,0.4074815362699826,0.011551629805706646,10.814258735119507,0.6047672917839158
182.0,21.06748996052245,0.4076775561895361,0.011546950816038307,10.813734646947127,0.6047771686311741
183.0,21.07128419825223,0.407873612394231,0.011542272713514594,10.813210556868619,0.6047868039092089
184.0,21.075078265437917,0.40806970480959043,0.011537595488316794,10.81268646495884,0.6047960925445351
185.0,21.078872161650978,0.4082658333607045,0.011532919123663872,10.8121623712926,0.6048058317546829
186.0,21.082665886465584,0.408461997973209,0.011528243649616014,10.811638275944924,0.6048165658570623
187.0,21.086459439456213,0.40865819857268065,0.011523569058904871,10.811114178990573,0.6048270977488897
188.0,21.090252820198575,0.408854435084673,0.011518895326232494,10.810590080503339,0.6048374622312588
189.0,21.094046028266625,0.4090507074346202,0.011514222468395945,10.810065980557734,0.6048475959163107
190.0,21.09783906323415,0.4092470155478878,0.011509550478820298,10.809541879228572,0.6048574396884954
191.0,21.101631924674816,0.409443359349776,0.011504879371778869,10.80901777659108,0.6048673669278921
192.0,21.105424612162142,0.4096397387654995,0.01150020915302889,10.808493672720653,0.6048771311953892
193.0,21.10921712526952,0.40983615372023213,0.011495539823944552,10.807969567692743,0.6048862416335625
