k,PSNR,SSIM,mse,Log-Gradient,Angle
0.0,20.37520401439055,0.37270676760468385,0.0,10.908924819239388,0.5997680935976326
1.0,20.378382275044906,0.3728613301535453,0.010118770916725138,10.908487234073604,0.6028585970044774
2.0,20.382167788024045,0.37304775648791727,0.012238680809992658,10.907968998582817,0.6028984430408673
3.0,20.385983407216898,0.3732359753088401,0.012376505054152744,10.907446768075012,0.6029132777425662
4.0,20.389802034174362,0.37342443571815376,0.012390402786185832,10.906924099047622,0.6029181782452927
5.0,20.393621373870214,0.37361299498555217,0.012390783522634468,10.90640129816303,0.602920069099554
6.0,20.397441068581905,0.3738016282984682,0.012388470545862194,10.905878415871188,0.6029264705774477
7.0,20.40126103347781,0.3739903294334774,0.012385330514142465,10.905355465549535,0.6029324395892418
8.0,20.405081244229827,0.37417909641100094,0.012381898169334334,10.904832451837082,0.6029426377039904
9.0,20.40890169189952,0.3743679285031631,0.01237834200497472,10.904309376643354,0.6029535451910275
10.0,20.41272237256107,0.37455682533950124,0.012374725112233476,10.903786240877096,0.6029641713670236
11.0,20.4165432843177,0.3747457866954567,0.01237106222460355,10.903263045154437,0.6029753594600598
12.0,20.420364425478205,0.37493481240378124,0.012367358001590173,10.902739789891225,0.6029871247847425
13.0,20.42418579502471,0.3751239023407961,0.012363634283584158,10.902216475309332,0.6029989328293764
14.0,20.42800739236818,0.3753130564326083,0.01235989732712915,10.901693101627771,0.6030104551117857
15.0,20.431829217054585,0.37550227462052616,0.012356153278987626,10.901169668992502,0.6030218162925128
16.0,20.435651268663886,0.37569155684900885,0.012352403040427598,10.900646177522866,0.6030330062888255
17.0,20.439473546827372,0.3758809030636534,0.012348650414436585,10.900122627301467,0.6030441672619945
18.0,20.443296051176468,0.37607031321325435,0.012344892211350739,10.899599018410125,0.6030552811769393
19.0,20.44711878136902,0.37625978724888465,0.012341130623537923,10.89907535091756,0.603066436825721
20.0,20.450941737098386,0.3764493251264602,0.012337368223376553,10.898551624880676,0.6030776342269053
21.0,20.454764917957093,0.3766389267923768,0.012333603105913247,10.898027840354924,0.6030889185738593
22.0,20.458588323633776,0.3768285922017444,0.012329833190582878,10.897503997427718,0.6031002168258516
23.0,20.46241195377419,0.37701832130509233,0.012326062468908537,10.896980096152387,0.6031115014155801
24.0,20.46623580805853,0.3772081140567504,0.012322290937566916,10.896456136578047,0.6031227425419784
25.0,20.470059886188476,0.3773979704130128,0.012318519390354459,10.895932118750906,0.6031339367124127
26.0,20.473884187851215,0.37758789032792883,0.012314746528443844,10.895408042725,0.6031450570389328
27.0,20.477708712750086,0.3777778737579385,0.012310973168767217,10.894883908548257,0.6031561894126072
28.0,20.481533460588235,0.37796792065937496,0.012307199988727178,10.894359716264733,0.6031673439747225
29.0,20.4853584310686,0.3781580309884964,0.012303426998839632,10.893835465918219,0.6031784627942706
30.0,20.489183623893847,0.37834820470144986,0.012299654207164243,10.89331115755231,0.6031895024126502
31.0,20.493009038766345,0.37853844175429624,0.012295881189495208,10.892786791214542,0.6032005455749394
32.0,20.49683467538818,0.3787287421029903,0.01229210799280106,10.892262366945603,0.6032115640784015
33.0,20.500660533461087,0.3789191057033781,0.012288334992444583,10.891737884788634,0.6032225838894197
34.0,20.504486612686485,0.37910953251121665,0.012284561951457877,10.89121334478606,0.6032336742537316
35.0,20.508312912765415,0.3793000224821402,0.01228078855682632,10.890688746975187,0.603244831633917
36.0,20.51213943339857,0.3794905755716931,0.012277014481947662,10.89016409140347,0.6032560584461129
37.0,20.515966174286273,0.37968119173530424,0.012273239857106415,10.889639378122297,0.6032672231577064
38.0,20.519793135128484,0.37987187092829683,0.012269465364537907,10.889114607174964,0.6032785119234212
39.0,20.523620315624797,0.3800626131058909,0.01226569103548115,10.888589778604318,0.6032898118079267
40.0,20.52744771547441,0.38025341822319514,0.012261916871449117,10.888064892453235,0.6033010675583845
41.0,20.531275334357947,0.3804442862344022,0.012258142560596789,10.887539948767829,0.6033122428090917
42.0,20.535103171965726,0.38063521709404896,0.012254368268737785,10.887014947592474,0.6033234179133756
43.0,20.538931227996517,0.3808262107569444,0.012250594146829361,10.886489888970056,0.6033345275564138
44.0,20.54275950214867,0.3810172671777987,0.012246820195981797,10.885964772943508,0.6033456007247656
45.0,20.54658799412017,0.3812083863112011,0.012243046417142927,10.885439599555816,0.6033566146958736
46.0,20.550416703608608,0.3813995681116447,0.012239272811119632,10.884914368850032,0.6033675886074744
47.0,20.554245630307427,0.3815908125333766,0.012235499315594136,10.884389080866413,0.6033784862185536
48.0,20.558074773911205,0.3817821195305922,0.012231725950491473,10.883863735646402,0.6033893074828882
49.0,20.561904134116446,0.3819734890574504,0.01222795275344966,10.883338333233242,0.6034000451977689
50.0,20.56573371061925,0.3821649210679999,0.01222417972498999,10.882812873670245,0.6034107158182155
51.0,20.569563503115344,0.3823564155161932,0.012220406755959852,10.88228735700075,0.6034213275276189
52.0,20.573393511300072,0.38254797235585575,0.012216633926333247,10.88176178326819,0.6034320039733504
53.0,20.57722373486837,0.3827395915407105,0.01221286118638971,10.881236152517127,0.6034425476730557
54.0,20.5810541735148,0.3829312730243819,0.012209088509158996,10.880710464792521,0.6034529419927656
55.0,20.584884826933525,0.3831230167603618,0.012205315997355519,10.88018472013801,0.6034632731425669
56.0,20.588715694818333,0.38331482270205103,0.012201543651459819,10.879658918597306,0.6034736378484745
57.0,20.59254677686258,0.38350669080273375,0.012197771349872636,10.87913306021461,0.6034840094242002
58.0,20.59637807275928,0.38369862101557994,0.012193999148470665,10.878607145033996,0.6034945468118892
59.0,20.60020958220101,0.3838906132936626,0.012190227115089592,10.878081173099387,0.6035049454029503
60.0,20.604041304879985,0.38408266758992876,0.012186455250255579,10.877555144454782,0.6035152471889904
61.0,20.607873240487997,0.38427478385722624,0.012182683554469538,10.877029059144258,0.6035255155211608
62.0,20.611705388716462,0.3844669620482935,0.012178912028209117,10.876502917211967,0.6035356438680681
63.0,20.6155377492564,0.38465920211574517,0.012175140671930224,10.875976718702146,0.6035457333800195
64.0,20.61937032179842,0.3848515040121028,0.012171369486068397,10.875450463659107,0.6035560585009604
65.0,20.623203106032758,0.38504386768976745,0.012167598471040082,10.874924152127244,0.6035659683071332
66.0,20.627036101649217,0.3852362931010269,0.012163827627243393,10.874397784151029,0.6035755596253534
67.0,20.630869308337246,0.38542878019807514,0.012160056955059166,10.873871359775018,0.6035850002326307
68.0,20.63470272578586,0.3856213289329759,0.012156286454851601,10.873344879043845,0.6035951439472167
69.0,20.638536353683694,0.3858139392576936,0.012152516118580653,10.872818342002285,0.6036055630582441
70.0,20.642370191718985,0.38600661112407963,0.012148745834522023,10.872291748696007,0.6036157917378211
71.0,20.646204239579564,0.386199344483875,0.01214497572721393,10.871765099169844,0.6036258676503103
72.0,20.650038496952867,0.3863921392887068,0.012141205797006224,10.871238393468712,0.6036356769489526
73.0,20.65387296352593,0.38658499549010067,0.01213743604423002,10.87071163163761,0.6036465930725567
74.0,20.657707638985375,0.3867779130394548,0.01213366646919774,10.870184813721618,0.603656329416599
75.0,20.66154252301745,0.38697089188807937,0.012129897072203279,10.8696579397659,0.603666126150054
76.0,20.66537761530799,0.387163931987155,0.012126127853522121,10.869131009815707,0.6036757700636315
77.0,20.669212915542417,0.3873570332877559,0.012122358813411654,10.868604023916369,0.6036851527727631
78.0,20.67304842340578,0.3875501957408556,0.012118589952111172,10.868076982113298,0.6036945153946992
79.0,20.6768841385827,0.3877434192973013,0.012114821269842,10.867549884451995,0.6037039083433541
80.0,20.6807200607574,0.38793670390783824,0.01211105276680754,10.867022730978043,0.6037136223483796
81.0,20.684556189613716,0.3881300495231039,0.012107284443193452,10.866495521737109,0.6037240547783739
82.0,20.688392524835074,0.38832345609361596,0.012103516299167495,10.865968256774945,0.6037348853330381
83.0,20.692229066104492,0.3885169235697881,0.012099748334879755,10.865440936137386,0.6037451421465762
84.0,20.696065813104596,0.3887104519019175,0.012095980550462496,10.864913559870352,0.6037546949496798
85.0,20.699902765517592,0.38890404104019494,0.012092212946030243,10.864386128019849,0.6037648040421735
86.0,20.7037399230253,0.389097690934699,0.012088445521679866,10.863858640631967,0.6037751010798447
87.0,20.707577285309124,0.3892914015353932,0.012084678277490511,10.863331097752882,0.603785447656612
88.0,20.71141485205008,0.38948517279213934,0.012080911213523591,10.862803499428853,0.6037958317041455
89.0,20.71525262292877,0.38967900465468014,0.012077144329822922,10.862275845706225,0.6038061852887123
90.0,20.719090597625392,0.3898728970726433,0.012073377626414661,10.861748136631432,0.6038170642688244
91.0,20.722928775819728,0.3900668499955593,0.01206961110330752,10.861220372250987,0.6038280498241362
92.0,20.726767157191183,0.39026086337283566,0.012065844760492423,10.860692552611495,0.6038388972519765
93.0,20.730605741418735,0.39045493715377194,0.012062078597943077,10.86016467775964,0.6038496985554404
94.0,20.734444528180966,0.39064907128755655,0.012058312615615647,10.859636747742199,0.603860711909363
95.0,20.738283517156052,0.3908432657232725,0.012054546813449042,10.85910876260603,0.6038719312893318
96.0,20.742122708021764,0.39103752040988365,0.012050781191364875,10.858580722398079,0.6038829847817481
97.0,20.745962100455465,0.3912318352962367,0.012047015749267712,10.858052627165376,0.60389385036682
98.0,20.749801694134117,0.39142621033109065,0.012043250487045075,10.85752447695504,0.603904467267868
99.0,20.753641488734278,0.3916206454630684,0.012039485404567642,10.856996271814277,0.6039150886354567
100.0,20.757481483932082,0.3918151406406912,0.012035720501689343,10.856468011790371,0.6039260658566473
101.0,20.7613216794033,0.3920096958123749,0.012031955778247557,10.855939696930703,0.6039373099993354
102.0,20.76516207482324,0.3922043109264168,0.012028191234063276,10.855411327282736,0.6039490388635478
103.0,20.769002669866854,0.3923989859309988,0.01202442686894129,10.854882902894017,0.6039598089700947
104.0,20.772843464208655,0.39259372077420457,0.012020662682670474,10.854354423812183,0.6039689675127659
105.0,20.77668445752277,0.39278851540399745,0.012016898675023811,10.853825890084957,0.6039792471495115
106.0,20.780525649482907,0.39298336976822723,0.01201313484575884,10.853297301760149,0.6039899826079415
107.0,20.784367039762387,0.39317828381464265,0.012009371194617815,10.852768658885653,0.6040005357285833
108.0,20.788208628034095,0.3933732574908669,0.012005607721327936,10.852239961509452,0.6040109119056162
109.0,20.792050413970536,0.3935682907444297,0.012001844425601668,10.85171120967962,0.6040214759833702
110.0,20.795892397243797,0.3937633835227324,0.011998081307137053,10.851182403444307,0.604032103535271
111.0,20.799734577525562,0.39395853577307277,0.011994318365201144,10.850653542851761,0.6040430357904619
112.0,20.80357695448711,0.39415374744264,0.011990555598297306,10.850124627950313,0.6040544080313509
113.0,20.807419527799304,0.3943490184785068,0.011986793006169217,10.849595658788385,0.604067000511406
114.0,20.811262297132615,0.3945443488276384,0.011983030588548677,10.849066635414479,0.6040795329793555
115.0,20.815105262157104,0.3947397384368863,0.011979268345155494,10.848537557877188,0.6040919296362385
116.0,20.81894842254233,0.394935187252987,0.011975506273684239,10.848008426225194,0.60410445933672
117.0,20.822791777957434,0.39513069522256467,0.011971744373306392,10.847479240507264,0.6041170590932274
118.0,20.826635328071145,0.3953262622921354,0.011967982643838795,10.84695000077225,0.6041298465900855
119.0,20.830479072551814,0.39552188840809555,0.011964221085089774,10.846420707069088,0.6041386422579292
120.0,20.83432301106738,0.3957175735167446,0.011960459696859388,10.845891359446803,0.6041503535505084
121.0,20.83816714328539,0.39591331756425796,0.01195669847893923,10.845361957954502,0.6041620150860377
122.0,20.842011468872997,0.39610912049671015,0.011952937425618742,10.844832502641435,0.6041734624414271
123.0,20.845855987496957,0.39630498226006083,0.011949176535437813,10.844302993556953,0.6041848496717096
124.0,20.84970069882361,0.3965009028001521,0.01194541580819373,10.843773430750486,0.6041963420744872
125.0,20.853545602518206,0.39669688206276327,0.01194165520369251,10.843243814270313,0.6042077166684604
126.0,20.85739069824589,0.39689291999354226,0.01193789473620734,10.842714144165276,0.6042188772691511
127.0,20.86123598567187,0.3970890165380072,0.011934134430313716,10.842184420485086,0.6042298383574612
128.0,20.86508146446097,0.3972851716415667,0.011930374285878443,10.841654643279542,0.60424068081431
129.0,20.868927134277612,0.3974813852495187,0.011926614302766102,10.841124812598522,0.6042514579097559
130.0,20.872772994785826,0.39767765730704857,0.011922854461058638,10.840594928490408,0.6042620158739787
131.0,20.876619045649235,0.3978739877592403,0.011919094762868796,10.840064991004104,0.6042726145589011
132.0,20.880465286531077,0.3980703765510459,0.01191533522194839,10.839535000189766,0.6042844956242631
133.0,20.88431171709418,0.3982668236273352,0.011911575838207537,10.839004956097632,0.6042955986357418
134.0,20.888158337000995,0.39846332893284336,0.011907816611556243,10.838474858778026,0.6043061242591486
135.0,20.89200514591356,0.39865989241220895,0.011904057523212015,10.837944708280041,0.6043165009404973
136.0,20.895852143493524,0.39885651400995337,0.011900298576600635,10.83741450465338,0.6043263974091411
137.0,20.899699329402143,0.3990531936704918,0.011896539775931327,10.836884247948714,0.6043370221920737
138.0,20.90354670330027,0.3992499313381273,0.01189278112119493,10.836353938216808,0.6043475412637251
139.0,20.907394264847895,0.3994467269569026,0.01188902254306844,10.835823575505986,0.6043579377738183
140.0,20.911242013704864,0.3996435804708285,0.011885264070486321,10.83529315986582,0.6043681096506427
141.0,20.915089949530916,0.39984049182389025,0.011881505740763012,10.834762691347441,0.6043779619834181
142.0,20.918938071985412,0.4000374609599586,0.011877747554067121,10.83423217000207,0.6043876975657861
143.0,20.92278638072729,0.40023448782280213,0.011873989497529906,10.833701595880521,0.6043978005602699
144.0,20.926634875415097,0.40043157235607163,0.01187023155795387,10.83317096903323,0.6044075427642918
145.0,20.930483555707006,0.40062871450330984,0.01186647376106854,10.832640289511687,0.6044175275173554
146.0,20.93433242126077,0.400825914207954,0.01186271610710891,10.832109557367469,0.6044274695063947
147.0,20.93818147173377,0.4010231714133223,0.011858958596317056,10.831578772652241,0.6044372678034525
148.0,20.94203070678297,0.4012204860626298,0.011855201228941717,10.831047935417761,0.604446989228323
149.0,20.94588012606494,0.40141785809897806,0.01185144400523785,10.830517045715867,0.6044565270657413
150.0,20.949729729235045,0.4016152874652604,0.011847686904303233,10.82998610359691,0.6044658785329513
151.0,20.95357951594886,0.4018127741043298,0.011843929941325755,10.829455109112471,0.6044753960373325
152.0,20.957429485861784,0.4020103179589675,0.011840173122539054,10.828924062314663,0.6044846825212218
153.0,20.961279638628845,0.402207918971828,0.011836416443147691,10.828392963255693,0.6044937108569842
154.0,20.965129973904638,0.4024055770854633,0.011832659900809533,10.827861811987859,0.6045025251634889
155.0,20.968980491343405,0.4026032922423237,0.011828903495927795,10.827330608563544,0.6045125015579568
156.0,20.97283119059896,0.40280106438473756,0.01182514722624691,10.826799353035256,0.6045231143084674
157.0,20.976682071324745,0.4029988934549296,0.01182139108793443,10.826268045455638,0.6045343537890123
158.0,20.980533133173793,0.40319677939501125,0.01181763508146827,10.825736685877425,0.6045455835327793
159.0,20.98438437579874,0.4033947221469852,0.01181387920687509,10.825205274353442,0.6045566290188366
160.0,20.98823579885184,0.40359272165274707,0.011810123459844685,10.824673810936616,0.604567630719746
161.0,20.992087401984946,0.4037907778540765,0.011806367840485936,10.82414229567996,0.6045786043775004
162.0,20.99593918484952,0.4039888906926484,0.01180261234935631,10.823610728636575,0.6045895302147125
163.0,20.999791147096612,0.4041870601100339,0.011798856987030459,10.823079109859654,0.6046002778862899
164.0,21.003643288376907,0.40438528604767554,0.011795101754099297,10.822547439402468,0.6046107752388216
165.0,21.00749560834068,0.4045835684469253,0.01179134665116953,10.82201571731839,0.604621326351613
166.0,21.0113481066378,0.4047819072490189,0.011787591677609203,10.821483943660885,0.6046313443585858
167.0,21.015200782917766,0.4049803023950769,0.011783836833969188,10.820952118483516,0.6046411796088841
168.0,21.019053636829675,0.4051787538261174,0.011780082120907386,10.820420241839928,0.6046510130011364
169.0,21.022906668022216,0.4053772614830525,0.011776327539095553,10.81988831378386,0.6046611172723618
170.0,21.0267598761437,0.40557582530666614,0.011772573061529712,10.819356334368962,0.6046713227648453
171.0,21.030613260842046,0.40577444523765854,0.01176881870738557,10.818824303649146,0.6046813299012279
172.0,21.03446682176476,0.40597312121660406,0.01176506445759832,10.818292221677643,0.6046911920674756
173.0,21.038320558558986,0.4061718531839695,0.011761310332280618,10.817760088508486,0.6047010432996411
174.0,21.04217447087146,0.4063706410801215,0.011757556333169833,10.817227904195823,0.6047110375208171
175.0,21.046028558348517,0.4065694848453026,0.011753802450315097,10.816695668793496,0.6047210222718379
176.0,21.049882820636103,0.4067683844196636,0.011750048676480912,10.816163382355139,0.6047311825477999
177.0,21.053737257379783,0.40696733974323135,0.011746295032041085,10.815631044935177,0.6047415744534624
178.0,21.057591868224712,0.40716635075592994,0.011742541518024773,10.815098656588123,0.60475175839263
179.0,21.061446652815675,0.4073654173975796,0.011738788135476083,10.814566217368581,0.6047618785090442
180.0,21.065301610797036,0.4075645396078822,0.011735034874856137,10.814033727330955,0.6047720382882481
181.0,21.069156741812797,0.4077637173264383,0.01173128173094457,10.813501186529576,0.6047819646100273
182.0,21.073012045506545,0.40796295049273534,0.011727528722019645,10.812968595019322,0.6047916253165507
183.0,21.07686752152094,0.4081622390460397,0.011723775843838298,10.812435952855127,0.6048009630853305
184.0,21.08072316949531,0.4083615829248826,0.011720023068308062,10.811903260091828,0.6048118369143123
185.0,21.08457898907213,0.40856098206843566,0.011716270430871782,10.811370516784562,0.604822677192482
186.0,21.08843497989467,0.4087604364158047,0.01171251790902297,10.810837722987639,0.6048332637976747
187.0,21.09229114160574,0.40895994590598733,0.011708765495743807,10.810304878755062,0.6048436435949845
188.0,21.09614747384683,0.40915951047784427,0.011705013203636379,10.809771984141845,0.604853852682016
189.0,21.100003976259053,0.4093591300701198,0.011701261028664025,10.809239039203113,0.6048639172383338
190.0,21.10386064848312,0.40955880462144895,0.011697508987379274,10.80870604399448,0.6048740839855451
191.0,21.107717490159384,0.40975853407037444,0.01169375708104296,10.80817299857165,0.6048841108370178
192.0,21.111574500927787,0.40995831835532154,0.011690005310924982,10.807639902990417,0.6048938602088986
193.0,21.11543168042789,0.41015815741460343,0.011686253678303766,10.807106757306672,0.6049040357713392
