k,PSNR,SSIM,mse,Log-Gradient,Angle
0.0,20.380142254859837,0.5120711072110132,0.0,11.011433616370967,0.582985164723739
1.0,20.3831693210668,0.5122116473473266,0.010158382505399988,11.011054872443477,0.5909324738692012
2.0,20.386703160713076,0.5123794871969479,0.011989605606815225,11.010619500083502,0.5910486644446443
3.0,20.390264065715638,0.5125493599027827,0.01212630807055284,11.01018117701924,0.5910965053534716
4.0,20.39382742606942,0.5127195353566546,0.012143826218607658,11.00974258885199,0.591108861254937
5.0,20.39739053198753,0.512889772771941,0.012144127856100502,11.009304030655022,0.5911160130270824
6.0,20.400952822539494,0.5130600140784645,0.012139965042924333,11.008865564735633,0.5911277492034083
7.0,20.404514134063263,0.513230240602719,0.012134276808703858,11.008427209200073,0.5911415795852378
8.0,20.408074404936567,0.5134004449131532,0.012127949507835174,11.007988971098435,0.5911565584193467
9.0,20.41163361024417,0.513570623875935,0.012121333913460762,11.0075508533899,0.5911666983380574
10.0,20.415191737480882,0.5137407758601237,0.012114580743740121,11.00711285742265,0.5911743032420017
11.0,20.41874877864855,0.5139108998357148,0.012107726863308993,11.006674984079206,0.5911795638234659
12.0,20.422304729136144,0.514080995185659,0.012100815045244075,11.006237233977176,0.5911866768211418
13.0,20.42585958528221,0.514251061420894,0.012093854863742913,11.005799607585512,0.5911953275770101
14.0,20.42941334480158,0.5144210982198344,0.012086868315092682,11.005362105199579,0.5912031108493089
15.0,20.432966005654766,0.5145911052682103,0.012079856884471532,11.004924727049827,0.5912119069494862
16.0,20.436517566431714,0.5147610823585538,0.012072830435355692,11.004487473328753,0.591221164469988
17.0,20.44006802611833,0.514931029357571,0.012065797598464552,11.004050344163874,0.5912310349628577
18.0,20.443617383683073,0.5151009461228119,0.012058757687304003,11.003613339662273,0.5912405706996953
19.0,20.447165638338554,0.5152708325284839,0.012051709423766772,11.003176459955855,0.591251114215756
20.0,20.450712789374343,0.5154406884765597,0.012044659301743768,11.002739705153223,0.5912612984268949
21.0,20.454258835938198,0.5156105138579693,0.012037606946594845,11.002303075301393,0.5912711216604515
22.0,20.45780377741403,0.5157803085900715,0.012030556045404582,11.001866570499608,0.5912806504100102
23.0,20.461347613226692,0.5159500725944584,0.0120235069438804,11.00143019083521,0.5912897599862675
24.0,20.464890342744248,0.5161198057872641,0.012016457978012048,11.000993936400581,0.5912986813153027
25.0,20.468431965361724,0.5162895080854903,0.012009410202141165,11.000557807274129,0.591307698941122
26.0,20.47197248042574,0.5164591794011485,0.012002361531818108,11.000121803543394,0.5913177275932975
27.0,20.475511887342826,0.5166288196555081,0.011995313750472142,10.999685925286173,0.5913281920061607
28.0,20.479050185563395,0.5167984287718324,0.011988267829990762,10.999250172582741,0.5913385437657395
29.0,20.482587374520453,0.5169680066701897,0.01198122343393175,10.998814545513957,0.5913484976008925
30.0,20.486123453725433,0.5171375532772644,0.011974180912626775,10.998379044157813,0.5913581211515501
31.0,20.489658422675063,0.5173070685197176,0.011967140661501056,10.99794366859061,0.5913676046524625
32.0,20.49319228082642,0.5174765523223098,0.011960102750162646,10.997508418888033,0.5913769906282648
33.0,20.496725027625118,0.5176460046099102,0.011953066684240834,10.997073295119856,0.5913866231877765
34.0,20.500256662541187,0.5178154253107463,0.011946033372704659,10.99663829736039,0.5913961562338731
35.0,20.503787185030788,0.5179848143511664,0.011939002060260299,10.996203425689517,0.5914055783490724
36.0,20.50731659455051,0.5181541716560661,0.011931972487474985,10.995768680181357,0.5914149031179721
37.0,20.51084489056009,0.5183234971508899,0.011924944759616331,10.995334060905968,0.5914240640136532
38.0,20.51437207253652,0.5184927907635455,0.011917919612189179,10.994899567933649,0.5914331173822204
39.0,20.51789813996011,0.518662052422146,0.011910897085219158,10.994465201332758,0.5914421533123346
40.0,20.521423092316375,0.5188312820556901,0.011903877464748384,10.994030961173772,0.5914510547869102
41.0,20.5249469290897,0.5190004795928276,0.011896860475051051,10.99359684752815,0.5914600045543252
42.0,20.528469649769832,0.5191696449626529,0.011889846258829663,10.993162860467251,0.5914696665197114
43.0,20.531991253822493,0.519338778093676,0.011882834677905052,10.99272900006466,0.5914792289848431
44.0,20.53551174073648,0.5195078789154272,0.011875826129614383,10.992295266390084,0.5914887180386587
45.0,20.539031110003705,0.5196769473576253,0.01186882066139606,10.99186165951266,0.5914980935953241
46.0,20.54254936111676,0.5198459833500455,0.011861818276807571,10.991428179501359,0.5915074161816304
47.0,20.5460664935689,0.5200149868225319,0.011854818979118399,10.990994826425,0.5915166253402891
48.0,20.549582506854044,0.5201839577049988,0.011847822771343485,10.990561600352247,0.5915256771820038
49.0,20.553097400466775,0.5203528959274296,0.011840829656272485,10.990128501351617,0.5915345787462721
50.0,20.55661117390235,0.5205218014198648,0.011833839636494639,10.989695529491472,0.5915434755367326
51.0,20.560123826656287,0.5206906741123176,0.011826852677800126,10.98926268483992,0.5915522245886614
52.0,20.563635358222733,0.5208595139342628,0.01181986858238589,10.988829967464271,0.5915608982962891
53.0,20.5671457680991,0.5210283208159775,0.011812887591354657,10.988397377432454,0.5915694874500469
54.0,20.57065505578116,0.5211970946877145,0.011805909574923173,10.987964914811963,0.5915781036675305
55.0,20.57416322076529,0.5213658354795813,0.011798934520354923,10.98753257966992,0.5915866391063525
56.0,20.57767026254193,0.5215345431209139,0.011791961969173948,10.98710037207142,0.5915950031128687
57.0,20.5811761806099,0.5217032175423745,0.011784992390917121,10.98666829208338,0.5916032895769481
58.0,20.584680974469165,0.5218718586747908,0.011778025814996228,10.98623633977279,0.5916114326153962
59.0,20.588184643620927,0.5220404664486872,0.011771062241375377,10.985804515206928,0.5916195621698116
60.0,20.591687187566123,0.5222090407944026,0.011764101513766806,10.985372818453424,0.5916278531614169
61.0,20.59518860580681,0.5223775816425916,0.011757143754569778,10.98494124958001,0.5916362857868313
62.0,20.59868889784543,0.5225460889238304,0.011750189005843256,10.984509808653023,0.591644993379365
63.0,20.60218806318714,0.5227145625692224,0.011743237403578206,10.984078495738858,0.5916538939148948
64.0,20.60568610133774,0.5228830025099523,0.011736288950312587,10.983647310903788,0.5916627212400368
65.0,20.609183011803665,0.5230514086772549,0.011729343648478567,10.983216254213959,0.5916714754500735
66.0,20.61267879407586,0.5232197810022026,0.011722401494619204,10.982785325731621,0.5916800190198556
67.0,20.616173447638655,0.5233881194158349,0.01171546248397676,10.982354525517213,0.5916885166299006
68.0,20.619666972000342,0.5235564238495809,0.011708526625128493,10.981923853636525,0.5916967523061222
69.0,20.623159366669853,0.5237246942349397,0.011701593920145543,10.981493310155232,0.5917045308259741
70.0,20.626650631156767,0.5238929305034702,0.011694664371019438,10.981062895138892,0.5917121135154751
71.0,20.630140764971337,0.5240611325868061,0.011687737979663921,10.98063260865295,0.5917219655057792
72.0,20.63362976762444,0.524229300416632,0.011680814747916565,10.980202450762734,0.5917317783747478
73.0,20.637117638627625,0.524397433924705,0.011673894677540203,10.97977242153346,0.5917406868530096
74.0,20.64060437749307,0.5245655330428428,0.011666977770224194,10.979342521030226,0.5917488824631524
75.0,20.644089983733615,0.5247335977029307,0.011660064027585354,10.978912749318019,0.5917565465096888
76.0,20.647574456862753,0.5249016278369153,0.011653153451168978,10.978483106461713,0.5917638295144461
77.0,20.65105779639461,0.5250696233768047,0.011646246042449395,10.978053592526065,0.5917708819016653
78.0,20.654540001843962,0.5252375842546768,0.01163934180283079,10.97762420757572,0.5917776787452893
79.0,20.658021072726246,0.5254055104026674,0.01163244073364752,10.977194951675214,0.591784268954653
80.0,20.66150100855753,0.5255734017529837,0.011625542836164616,10.976765824888963,0.5917907425892946
81.0,20.664979808854543,0.5257412582378872,0.011618648106749724,10.976336827281289,0.5917970227649637
82.0,20.668457473134644,0.5259090797897076,0.011611756543044843,10.975907958916407,0.5918033657873983
83.0,20.67193400091586,0.5260768663408465,0.011604868146272759,10.975479219858421,0.59180959657642
84.0,20.67540939171686,0.5262446178237592,0.011597982917600013,10.975050610171321,0.591816436773266
85.0,20.678883645056988,0.5264123341709692,0.011591100858136643,10.974622129918977,0.5918231947054206
86.0,20.682356760456145,0.5265800153150697,0.011584221951477581,10.974193779165104,0.5918297435956205
87.0,20.685828737434875,0.5267476611887223,0.01157734618622084,10.973765557973255,0.5918367038131859
88.0,20.689299575514475,0.5269152717246487,0.01157047359566915,10.973337466406955,0.5918440813695517
89.0,20.692769274216598,0.5270828468556235,0.011563604174107033,10.972909504529666,0.5918512988280995
90.0,20.69623783306338,0.527250386514481,0.011556737918982122,10.972481672404763,0.5918583221014428
91.0,20.699705251577626,0.5274178906341188,0.011549874831034824,10.972053970095509,0.5918650558960165
92.0,20.7031715292828,0.5275853591475018,0.011543014910959678,10.971626397665045,0.5918724023197784
93.0,20.706636665703012,0.5277527919876595,0.011536158159405332,10.971198955176405,0.591880482037486
94.0,20.710100660363047,0.5279201890876873,0.011529304576974327,10.970771642692501,0.5918887253212207
95.0,20.713563512790323,0.5280875503807413,0.011522454125504827,10.970344460276204,0.5918971155536011
96.0,20.717025222513527,0.5282548758000395,0.011515606794855146,10.96991740799028,0.5919042431591153
97.0,20.72048578905939,0.5284221652788768,0.011508762635944364,10.969490485897298,0.5919136548985194
98.0,20.72394521195275,0.5285894187501792,0.011501921616548352,10.96906369405759,0.5919223867084767
99.0,20.72740349072111,0.5287566361472749,0.011495083757499748,10.968637032533026,0.5919302211862326
100.0,20.730860624893246,0.5289238174036606,0.011488249066084021,10.968210501385842,0.5919383497703251
101.0,20.734316613998605,0.5290909624528973,0.011481417542646128,10.96778410067816,0.5919472695628812
102.0,20.737771457567284,0.5292580712286167,0.011474589187486246,10.967357830471984,0.5919550155158396
103.0,20.741225155130053,0.5294251436645093,0.011467764000859828,10.966931690829211,0.5919631557148287
104.0,20.744677706218347,0.5295921796943462,0.011460941982977532,10.966505681811618,0.5919716325032063
105.0,20.74812911036428,0.5297591792519528,0.011454123134004943,10.96607980348087,0.5919797470940319
106.0,20.75157936710063,0.5299261422712279,0.011447307454062404,10.965654055898513,0.5919874562397772
107.0,20.755028475960838,0.5300930686861367,0.011440494943224582,10.965228439125985,0.5919948877960491
108.0,20.75847643647902,0.5302599584307095,0.011433685601520246,10.964802953224604,0.5920022718418423
109.0,20.761923248189454,0.5304268114391789,0.011426879444085958,10.96437759825487,0.5920097004016961
110.0,20.765368910625284,0.5305936276462865,0.01142007652162005,10.96395237427475,0.5920170074814812
111.0,20.768813423322577,0.5307604069862695,0.011413276766238083,10.963527281345213,0.592024393608495
112.0,20.772256785818097,0.5309271493934349,0.011406480176977886,10.963102319527115,0.5920316600708285
113.0,20.7756989976493,0.5310938548021455,0.011399686750205064,10.96267748888122,0.5920385629159448
114.0,20.77914005835432,0.5312605231468432,0.011392896485712466,10.962252789468169,0.5920445556514033
115.0,20.78257996747197,0.5314271543620276,0.011386109383250046,10.961828221348494,0.5920506959055937
116.0,20.78601872454054,0.5315937483820833,0.011379325424826581,10.96140378458099,0.5920570705333529
117.0,20.78945632909565,0.5317603051407853,0.011372544542344355,10.960979479219752,0.5920633459138819
118.0,20.79289278067793,0.5319268245727776,0.011365766808350572,10.960555305324624,0.5920694169189056
119.0,20.796328078829,0.5320933066128462,0.01135899222960684,10.960131262955723,0.592075484787143
120.0,20.79976222309015,0.5322597511956755,0.011352220761497285,10.959707352171488,0.5920821238978202
121.0,20.803195213002482,0.5324261582558756,0.011345452358970543,10.959283573028742,0.5920888044170675
122.0,20.8066270481075,0.5325925277280087,0.011338687033659239,10.95885992558433,0.5920956226930533
123.0,20.810057727945875,0.5327588595464967,0.011331924734007149,10.958436409894022,0.5921026290651192
124.0,20.81348725206248,0.532925153646432,0.011325165552076686,10.958013026017099,0.5921096541167729
125.0,20.816915620003307,0.5330914099630619,0.011318409504488964,10.95758977401318,0.5921166714608492
126.0,20.820342831315056,0.533257628431703,0.011311656591532278,10.95716665394177,0.5921238023811836
127.0,20.823768885544673,0.5334238089875449,0.011304906782472573,10.956743665861548,0.59212870157549
128.0,20.827193782239707,0.5335899515658138,0.011298160066763227,10.956320809830908,0.5921354665812265
129.0,20.83061752094903,0.5337560561020444,0.011291416481336788,10.955898085909034,0.5921425131506072
130.0,20.83404010121948,0.5339221225317198,0.011284675996031083,10.955475494153047,0.5921494431089688
131.0,20.837461522600687,0.5340881507904115,0.011277938627218756,10.955053034621452,0.592156326469512
132.0,20.84088178464158,0.5342541408134681,0.011271204260163143,10.95463070736873,0.5921630479448196
133.0,20.844300886893063,0.5344200925366075,0.01126447296983771,10.954208512451864,0.5921692302561145
134.0,20.847718828907734,0.5345860058957695,0.011257744808988642,10.953786449929575,0.5921754042869775
135.0,20.8511356102389,0.5347518808269656,0.011251019778308419,10.953364519860484,0.5921831995176284
136.0,20.85455123044167,0.5349177172663334,0.011244297873461402,10.952942722302904,0.5921904686978737
137.0,20.857965689080142,0.5350835151502703,0.011237579039961976,10.952521057313279,0.5921976182432115
138.0,20.861378985709575,0.5352492744149714,0.011230863332338456,10.952099524949842,0.5922046201664226
139.0,20.864791119885176,0.5354149949966988,0.011224150735126427,10.951678125270078,0.5922113748415588
140.0,20.868202091163393,0.5355806768318186,0.011217441260951835,10.95125685833178,0.5922178897059692
141.0,20.8716118991018,0.5357463198567921,0.01121073492017164,10.950835724192952,0.5922244096618935
142.0,20.875020543258675,0.5359119240081583,0.011204031713440341,10.9504147229115,0.5922312147857467
143.0,20.878428023193024,0.5360774892225292,0.011197331640452108,10.949993854545221,0.5922377150209236
144.0,20.881834338464568,0.5362430154365921,0.011190634699791724,10.949573119151822,0.5922456444105925
145.0,20.885239488633186,0.536408502586916,0.011183940881683391,10.94915251678781,0.592253525374918
146.0,20.888643473259386,0.5365739506100978,0.011177250184247707,10.948732047509367,0.5922603852603342
147.0,20.892046291905054,0.5367393594430628,0.011170562620592005,10.94831171137389,0.59226679568546
148.0,20.895447944132812,0.5369047290227962,0.011163878191362256,10.947891508438673,0.5922727963447618
149.0,20.89884842950599,0.5370700592863785,0.011157196897177932,10.94747143876091,0.5922787729556761
150.0,20.902247747588703,0.5372353501709466,0.011150518738388342,10.947051502397697,0.592285029058912
151.0,20.90564589794645,0.5374006016137431,0.011143843712994692,10.946631699406009,0.5922914725450293
152.0,20.909042880145417,0.5375658135520773,0.011137171815522312,10.946212029842748,0.5922981073497477
153.0,20.912438693752517,0.5377309859233378,0.011130503046225084,10.945792493764708,0.5923046570957683
154.0,20.915833338335403,0.5378961186649888,0.011123837405858593,10.945373091228584,0.5923129419970207
155.0,20.919226813462327,0.5380612117145562,0.01111717488196922,10.944953822290666,0.5923211989797293
156.0,20.92261911870217,0.5382262650096171,0.011110515460184925,10.944534687006808,0.5923282547533598
157.0,20.926010253624764,0.5383912784878766,0.011103859170352655,10.94411568543342,0.592335339364246
158.0,20.9294002178003,0.5385562520870465,0.011097205967017663,10.943696817626263,0.592342545721996
159.0,20.932789010799784,0.5387211857449666,0.01109055586703778,10.943278083641015,0.5923498054500186
160.0,20.936176632195085,0.5388860793996112,0.011083908880597827,10.94285948353334,0.5923569606085196
161.0,20.939563081558866,0.5390509329890315,0.01107726501350973,10.942441017358908,0.5923644999105174
162.0,20.9429483584646,0.5392157464513296,0.011070624283304993,10.94202268517366,0.5923721129440239
163.0,20.94633246248606,0.5393805197245853,0.011063986658890896,10.941604487032407,0.5923796599095746
164.0,20.94971539319815,0.5395452527470591,0.011057352170361965,10.941186422990809,0.5923848409700517
165.0,20.953097150176525,0.539709945457083,0.011050720821197551,10.94076849310452,0.5923927221428583
166.0,20.956477732997513,0.5398745977930668,0.011044092603802094,10.940350697428983,0.5924007664210218
167.0,20.95985714123811,0.5400392096934837,0.011037467512316762,10.939933036019461,0.5924074598006874
168.0,20.96323537447612,0.5402037810969074,0.011030845562317789,10.939515508931308,0.5924130607802756
169.0,20.966612432290074,0.5403683119419881,0.01102422675440946,10.939098116219778,0.5924191801212192
170.0,20.969988314258686,0.5405328021674577,0.01101761106867403,10.938680857939419,0.5924250723609336
171.0,20.973363019961333,0.5406972517121059,0.011010998498074938,10.93826373414496,0.5924308435460502
172.0,20.976736548978575,0.5408616605148211,0.011004389065708007,10.937846744891315,0.592436294148381
173.0,20.98010890089183,0.5410260285145598,0.010997782777620953,10.937429890233348,0.5924431227588907
174.0,20.983480075283204,0.5411903556503669,0.010991179634311813,10.937013170225821,0.5924502026853367
175.0,20.986850071735518,0.5413546418613578,0.010984579636249901,10.936596584923398,0.5924567737012643
176.0,20.99021888983231,0.5415188870867276,0.010977982783876305,10.936180134380644,0.5924628112440607
177.0,20.99358652915783,0.541683091265753,0.010971389077603588,10.93576381865202,0.5924668524240876
178.0,20.99695298929502,0.5418472543373373,0.010964798464738704,10.935347637790194,0.5924730485118029
179.0,21.000318269827332,0.5420113762404077,0.010958210937663375,10.934931591847533,0.5924782482258808
180.0,21.003682370341114,0.5421754569144654,0.010951626553647209,10.934515680878178,0.5924833039138597
181.0,21.007045290423385,0.5423394962990831,0.010945045313006158,10.934099904936165,0.592489136736164
182.0,21.010407029661916,0.5425034943339121,0.010938467216033317,10.93368426407544,0.5924961774601808
183.0,21.01376758764518,0.542667450958685,0.010931892262999583,10.933268758349849,0.5925036215726078
184.0,21.01712696396236,0.5428313661132211,0.010925320454154468,10.932853387813141,0.5925111852328354
185.0,21.02048515820335,0.5429952397374044,0.010918751789726512,10.932438152518968,0.5925179596783644
186.0,21.023842169958765,0.5431590717712079,0.010912186269923893,10.932023052520885,0.5925238885044412
187.0,21.02719799881993,0.5433228621546783,0.010905623894934739,10.931608087872347,0.5925292518510313
188.0,21.03055264437873,0.5434866108279364,0.010899064651546128,10.931193258626521,0.592534813782459
189.0,21.03390610622785,0.5436503177311873,0.010892508546504335,10.930778564836567,0.5925415339566381
190.0,21.037258383960754,0.5438139828047177,0.010885955587156989,10.93036400655565,0.5925479830975312
191.0,21.040609477171635,0.5439776059888941,0.010879405773617736,10.929949583836837,0.5925536175832635
192.0,21.043959385455384,0.5441411872241643,0.010872859105979925,10.929535296733096,0.5925611093623525
193.0,21.047308108407613,0.5443047264510453,0.010866315584316498,10.9291211452973,0.5925676563866061
194.0,21.05065564562463,0.5444682236101382,0.010859775208144688,10.928707129582202,0.5925731028908466
