k,PSNR,SSIM,mse,Log-Gradient,Angle
0.0,20.380142254859837,0.5120711072110132,0.0,11.011433616370967,0.582985164723739
1.0,20.38316990307348,0.5122116743702477,0.01016033543959418,11.01105479962022,0.5909324755152422
2.0,20.38670500424121,0.512379573525903,0.011993836214276635,11.010619270707762,0.5910486649518857
3.0,20.39026785558351,0.5125495382262958,0.012132857917931733,11.010180706772427,0.5910965140964991
4.0,20.393833847630027,0.5127198384337665,0.012152704506467651,11.009741793347484,0.5911088765693752
5.0,20.39740027060966,0.5128902333859077,0.012155335767683673,11.009302825494888,0.5911160493348978
6.0,20.400966563499864,0.5130606650255275,0.012153501669913086,11.008863865522736,0.591127787016822
7.0,20.40453256251425,0.5132311146884487,0.012150140503912343,11.008424931541699,0.5911416057928361
8.0,20.408098205893765,0.5134015749509496,0.012146138327331881,11.007986030607745,0.59115660591435
9.0,20.411663468580493,0.5135720426863332,0.012141845760425641,11.007547165686674,0.5911667662665151
10.0,20.415228337923583,0.5137425162704387,0.01213741345292652,11.00710833813361,0.5911744115103811
11.0,20.41879280577685,0.5139129946797616,0.0121328782454568,11.006669548838298,0.5911796888137322
12.0,20.42235686737942,0.5140834773035512,0.01212828287774747,11.006230798425808,0.5911868107895616
13.0,20.425920518918662,0.5142539636589015,0.012123636920403618,11.005792087372686,0.5911954801679459
14.0,20.429483757956785,0.5144244534302234,0.01211896234434099,11.005353415982114,0.5912032916226498
15.0,20.433046582300687,0.5145949463091432,0.012114260643610193,11.00491478449243,0.5912120981205703
16.0,20.436608990385384,0.5147654420939446,0.012109541661748787,11.004476193104207,0.5912213707561359
17.0,20.440170981041,0.5149359406569949,0.012104814026540796,11.004037641953138,0.5912312728450193
18.0,20.44373255307925,0.5151064418614418,0.012100077055602707,11.003599131154548,0.5912408209100074
19.0,20.44729370555511,0.5152769455869728,0.01209532947198358,11.00316066084871,0.5912513886603915
20.0,20.450854437599357,0.5154474517409365,0.012090577752480437,11.002722231152756,0.591261608466133
21.0,20.454414748200158,0.5156179602195655,0.012085821533007038,11.002283842122283,0.5912714823544177
22.0,20.457974636580797,0.5157884709454253,0.012081064489644354,11.00184549386527,0.5912810528009859
23.0,20.461534102004762,0.5159589838452465,0.01207630697341927,11.00140718647785,0.5912902038931395
24.0,20.46509314367774,0.5161294988402103,0.012071547321212501,11.000968920061311,0.5912991730883937
25.0,20.468651760831555,0.5163000158522874,0.012066786587610172,11.000530694703084,0.5913082173941892
26.0,20.472209952648587,0.5164705347983475,0.012062022688882736,11.000092510499845,0.5913182694097887
27.0,20.475767718370253,0.5166410556044567,0.01205725740874235,10.999654367538604,0.5913287795080462
28.0,20.479325057280924,0.5168115781985657,0.012052491714721567,10.999216265908972,0.591339190519507
29.0,20.482881968646698,0.5169821025053675,0.012047725272363754,10.99877820570124,0.5913492063227526
30.0,20.4864384518109,0.5171526284560688,0.012042958436269225,10.998340187002933,0.5913588830182009
31.0,20.489994506101823,0.5173231559817822,0.01203819159496918,10.997902209899976,0.5913684156961608
32.0,20.493550130806952,0.5174936850116444,0.012033424822593529,10.997464274477808,0.5913778615402203
33.0,20.49710532520131,0.517664215474779,0.012028657623886411,10.997026380816052,0.5913875199350289
34.0,20.500660088583594,0.517834747303617,0.012023890910231,10.99658852899892,0.5913971101293249
35.0,20.50421442023769,0.518005280428628,0.012019123932409085,10.996150719116336,0.5914065916650169
36.0,20.507768319446974,0.518175814778739,0.012014356425736825,10.995712951252587,0.5914159673938114
37.0,20.51132178549703,0.5183463502833333,0.01200958849612464,10.995275225487982,0.5914251932538884
38.0,20.51487481768976,0.5185168868741593,0.012004820874349944,10.994837541903184,0.5914343348776275
39.0,20.51842741532957,0.5186874244831127,0.012000053607862672,10.994399900577022,0.5914434372200089
40.0,20.521979577725197,0.518857963042887,0.011995286982030945,10.993962301590498,0.5914524195630795
41.0,20.525531304183197,0.5190285024857406,0.011990520722161035,10.993524745025702,0.591461371664104
42.0,20.529082594014724,0.5191990427442719,0.011985754962117089,10.993087230964791,0.5914711021790905
43.0,20.532633446506722,0.5193695837504619,0.011980989585022358,10.992649759492084,0.5914807570556777
44.0,20.536183860966855,0.5195401254371697,0.01197622496172872,10.992212330688366,0.5914903229945654
45.0,20.539733836705718,0.5197106677373765,0.01197146115268722,10.99177494463384,0.5914997762313854
46.0,20.543283373033645,0.5198812105840476,0.011966698162108403,10.991337601408647,0.5915091836649897
47.0,20.54683246926078,0.5200517539101259,0.011961935993915965,10.99090030109287,0.5915184630624727
48.0,20.550381124696997,0.5202222976485443,0.011957174651780483,10.99046304376654,0.5915275749206882
49.0,20.553929338651958,0.5203928417322162,0.011952414139148274,10.990025829509646,0.5915365525475408
50.0,20.55747711043506,0.5205633860940347,0.011947654459266432,10.989588658402127,0.5915455347364402
51.0,20.561024439355165,0.520733930666792,0.011942895584088354,10.98915153052378,0.5915543664257404
52.0,20.564571324718706,0.5209044753826231,0.011938137307250903,10.988714445953667,0.5915631012287398
53.0,20.56811776583457,0.5210750201744107,0.011933379874221389,10.988277404771601,0.5915718052866438
54.0,20.571663762009095,0.5212455649749149,0.011928623157543517,10.987840407057046,0.5915804907056855
55.0,20.57520931254838,0.5214161097166832,0.0119238671501997,10.987403452889218,0.591589071301683
56.0,20.578754416751593,0.5215866543313915,0.011919111388671662,10.986966542345382,0.5915975178141666
57.0,20.582299073925412,0.5217571987519493,0.011914356344503432,10.986529675504729,0.5916058487390236
58.0,20.585843283376676,0.5219277429113686,0.011909602041433312,10.986092852446628,0.5916140902507004
59.0,20.589387044412845,0.5220982867423215,0.011904848529559718,10.985656073250688,0.5916222908404526
60.0,20.592930356339902,0.5222688301771193,0.01190009558009394,10.985219337997176,0.5916307798871808
61.0,20.596473218464077,0.5224393731483332,0.011895343334509353,10.984782646766599,0.5916393358062274
62.0,20.60001563009108,0.5226099155883576,0.011890591843035411,10.984345999638078,0.5916483287704065
63.0,20.60355759052849,0.5227804574300632,0.011885841243988237,10.9839093966909,0.5916573326297346
64.0,20.607099099083626,0.5229509986062911,0.011881091540568135,10.983472838004325,0.5916662542029628
65.0,20.61064015506354,0.5231215390498725,0.011876342735869789,10.9830363236576,0.5916750444759832
66.0,20.614180757755083,0.5232920786933261,0.011871594826734354,10.982599853725283,0.5916836768909893
67.0,20.617720906444987,0.5234626174691547,0.011866847811414222,10.982163428281956,0.5916922087477996
68.0,20.621260600439406,0.5236331553101243,0.011862101697189912,10.981727047406807,0.5917003460169601
69.0,20.62479983904425,0.52380369214898,0.011857356486794734,10.981290711179009,0.5917079782868452
70.0,20.628338621565195,0.5239742279184533,0.01185261218288266,10.98085441967772,0.5917168102659498
71.0,20.631876947307642,0.524144762551245,0.01184786878803027,10.980418172982088,0.5917269637804955
72.0,20.63541481557674,0.5243152959800438,0.011843126304738216,10.979981971171243,0.5917365068171659
73.0,20.638952225677386,0.5244858281375184,0.011838384735432776,10.979545814324307,0.5917451194623113
74.0,20.642489176914218,0.5246563589563117,0.011833644082467034,10.979109702520386,0.5917531756418809
75.0,20.646025668591612,0.5248268883690511,0.011828904348121849,10.978673635838575,0.591760712162538
76.0,20.649561700013695,0.5249974163083416,0.011824165534606764,10.978237614357958,0.5917679647743206
77.0,20.653097270484317,0.5251679427067645,0.011819427644060784,10.977801638157604,0.5917749819061556
78.0,20.656632379307098,0.5253384674968887,0.011814690678552859,10.977365707316574,0.5917817554924073
79.0,20.660167025785363,0.5255089906112579,0.011809954640082549,10.976929821913915,0.5917884105691389
80.0,20.663701209222197,0.5256795119823913,0.011805219530580132,10.976493982028662,0.5917948182288864
81.0,20.667234928920433,0.5258500315427986,0.011800485343515832,10.976058187739866,0.5918012381708424
82.0,20.670768184182613,0.5260205492249502,0.011795752080739772,10.975622439126566,0.5918076411088476
83.0,20.67430097431106,0.5261910649613198,0.011791019744145642,10.975186736267782,0.5918143619489467
84.0,20.67783329860781,0.5263615786843444,0.011786288335571273,10.974751079242528,0.5918212923398258
85.0,20.681365156374667,0.5265320903264492,0.011781557856798356,10.974315468129802,0.5918280286272489
86.0,20.684896546913166,0.5267025998200446,0.011776828309552194,10.973879903008593,0.591834878789481
87.0,20.688427469524488,0.5268731070975131,0.011772099667610674,10.973444383957785,0.5918424022471669
88.0,20.69195792350952,0.5270436120912224,0.011767371942416678,10.973008911056299,0.5918498594411609
89.0,20.69548790816857,0.5272141147335012,0.011762645146001487,10.972573484383156,0.5918570716825554
90.0,20.6990174228017,0.5273846149566587,0.011757919279827977,10.972138104017365,0.5918639996562944
91.0,20.702546466708736,0.5275551126929877,0.011753194345313632,10.971702770037922,0.5918712390758901
92.0,20.706075039189223,0.5277256078747588,0.011748470343830583,10.971267482523812,0.5918794946295473
93.0,20.709603139542484,0.5278961004342257,0.011743747276705392,10.970832241554001,0.5918878577483041
94.0,20.713130767067575,0.5280665903036225,0.011739025145218834,10.970397047207449,0.591896614338905
95.0,20.716657921064396,0.5282370774151587,0.01173430392940724,10.96996189956313,0.5919032442960003
96.0,20.72018460083497,0.528407561701027,0.011729583585812034,10.96952679870009,0.5919128278501399
97.0,20.723710805676987,0.528578043093303,0.011724864176022868,10.969091744696755,0.5919218081830244
98.0,20.72723653488588,0.5287485215237006,0.011720145676004323,10.96865673762989,0.5919298491502515
99.0,20.73076178775947,0.5289189969243668,0.011715428113103046,10.968221777578396,0.591938173529752
100.0,20.734286563595358,0.5290894692274261,0.011710711488384798,10.967786864621159,0.5919472573330765
101.0,20.73781086169089,0.5292599383649937,0.011705995802870784,10.967351998837053,0.5919551934109754
102.0,20.741334681343165,0.5294304042691585,0.011701281057537588,10.966917180304936,0.5919635880047519
103.0,20.744858021849048,0.5296008668719927,0.01169656725331719,10.966482409103655,0.5919722798022944
104.0,20.74838088250516,0.5297713261055568,0.011691854391096695,10.966047685312047,0.591980563083267
105.0,20.751903262607865,0.5299417819018882,0.011687142471718068,10.96561300900893,0.5919884501334958
106.0,20.755425161453296,0.530112234193012,0.011682431495977755,10.965178380273112,0.5919960231016571
107.0,20.758946578337344,0.5302826829109284,0.01167772146462628,10.964743799183392,0.5920036013307516
108.0,20.762467512555656,0.5304531279876331,0.01167301237836785,10.96430926581855,0.5920112329036821
109.0,20.76598796340187,0.5306235693555353,0.011668304290166184,10.963874780254958,0.5920187040045114
110.0,20.76950793017002,0.5307940069468575,0.011663597178870626,10.9634403425699,0.5920262818064229
111.0,20.773027412154978,0.5309644406935473,0.01165889101183591,10.963005952842112,0.5920337226333156
112.0,20.776546408651416,0.5311348705275223,0.01165418578610869,10.962571611150336,0.5920405040807747
113.0,20.780064918953762,0.531305296380678,0.011649481502200394,10.9621373175733,0.5920465318645416
114.0,20.783582942356208,0.5314757181849005,0.011644778160579029,10.961703072189717,0.5920530271657075
115.0,20.787100478152723,0.5316461358720618,0.011640075761668787,10.961268875078295,0.5920595610381346
116.0,20.79061752563264,0.5318165493732527,0.01163537423812129,10.960834726311827,0.59206594462106
117.0,20.794134084087684,0.5319869586199217,0.011630673618770872,10.960400625966589,0.5920721573589703
118.0,20.797650152811183,0.5321573635438956,0.011625973937585939,10.959966574121284,0.5920786769725274
119.0,20.801165731096255,0.5323277640769931,0.011621275194994988,10.959532570854611,0.5920855153257881
120.0,20.804680818232818,0.5324981601505128,0.011616577263813698,10.959098616240599,0.5920924101050629
121.0,20.80819541351277,0.5326685516960742,0.011611880231210249,10.95866471035677,0.5920995543451445
122.0,20.811709516224077,0.5328389386446292,0.011607183998744774,10.958230853276772,0.5921066372908051
123.0,20.81522312565785,0.5330093209277385,0.01160248864609955,10.957797045078133,0.5921138482491779
124.0,20.81873624110633,0.5331796984771883,0.011597794214177528,10.957363285839659,0.5921208764583632
125.0,20.822248861861542,0.533350071224742,0.011593100703976855,10.956929575640148,0.5921276885075604
126.0,20.82576098721505,0.5335204391020483,0.011588408099747198,10.956495914557989,0.5921348074092944
127.0,20.829272616457676,0.533690802040505,0.011583716362301901,10.956062302670714,0.5921401807564989
128.0,20.832783748880885,0.5338611599718476,0.011579025544228856,10.95562874005711,0.5921475677752722
129.0,20.836294383774256,0.5340315128277554,0.011574335631827519,10.955195226794773,0.5921547497066856
130.0,20.83980452042703,0.5342018605397415,0.011569646614543936,10.954761762961189,0.5921617157604676
131.0,20.84331415812837,0.5343722030391559,0.011564958418091853,10.95432834863159,0.592168253531414
132.0,20.846823296167585,0.5345425402574907,0.01156027106554191,10.95389498388196,0.5921742674651185
133.0,20.8503319338353,0.5347128721264637,0.011555584634720869,10.953461668791126,0.5921824920488662
134.0,20.853840070421956,0.5348831985777868,0.011550899127034832,10.953028403437903,0.5921900479540732
135.0,20.857347705217784,0.5350535195431552,0.011546214543871601,10.952595187901105,0.59219743263513
136.0,20.86085483752346,0.535223834954624,0.01154153083656255,10.952162022257555,0.5922046953888512
137.0,20.864361466628637,0.5353941447437495,0.0115368480363619,10.95172890658577,0.5922116944360384
138.0,20.867867591822268,0.5355644488421706,0.01153216614974313,10.951295840964049,0.5922184215395322
139.0,20.87137321239306,0.5357347471814999,0.011527485176543669,10.95086282547066,0.5922251528061382
140.0,20.87487832763024,0.5359050396933965,0.011522805133865327,10.950429860184414,0.5922322396022393
141.0,20.878382936822824,0.5360753263095015,0.011518126022079812,10.949996945184125,0.5922390231873615
142.0,20.881887039259652,0.5362456069614563,0.011513447840443086,10.949564080548603,0.592246887717262
143.0,20.88539063422936,0.536415881580884,0.01150877059038874,10.94913126635666,0.5922549114735137
144.0,20.888893721019958,0.5365861500992519,0.011504094265824485,10.948698502686277,0.5922620103418382
145.0,20.892396298918882,0.5367564124478833,0.01149941886083339,10.94826578961465,0.5922689330455154
146.0,20.8958983672142,0.5369266685583794,0.011494744390999479,10.947833127220589,0.5922756694432075
147.0,20.8993999251938,0.5370969183623425,0.011490070857684945,10.947400515582904,0.5922820099523823
148.0,20.902900972145382,0.537267161791363,0.01148539826222478,10.946967954780405,0.5922884601011752
149.0,20.90640150735714,0.5374373987770342,0.011480726602868032,10.94653544489189,0.5922948372182538
150.0,20.909901530117104,0.5376076292509478,0.01147605587433393,10.946102985996173,0.5923018155962142
151.0,20.913401039713115,0.5377778531446876,0.011471386078145072,10.945670578172074,0.5923094623036481
152.0,20.916900035432818,0.5379480703898281,0.011466717215809078,10.945238221498403,0.5923173137486245
153.0,20.92039851656368,0.5381182809179411,0.011462049288817337,10.944805916053973,0.5923247827927204
154.0,20.92389648239262,0.5382884846605205,0.011457382256448902,10.944373661916618,0.5923323746686712
155.0,20.927393932206748,0.538458681549133,0.011452716162608961,10.943941459165154,0.592340328114307
156.0,20.930890865292792,0.5386288715152889,0.011448050985269725,10.943509307878191,0.592347755323459
157.0,20.934387280937095,0.5387990544904864,0.011443386709096582,10.94307720813392,0.5923552097287255
158.0,20.937883178425967,0.5389692304063045,0.01143872334894065,10.942645160010592,0.5923628035995443
159.0,20.941378557045603,0.5391393991943209,0.011434060910801628,10.942213163586537,0.5923704915641066
160.0,20.94487341608222,0.5393095607860842,0.011429399420178028,10.941781218940617,0.5923782695814611
161.0,20.948367754821614,0.5394797151130936,0.011424738864003674,10.941349326151215,0.5923833723436817
162.0,20.951861572549323,0.5396498621068173,0.011420079238495705,10.940917485296536,0.5923918099937956
163.0,20.95535486855099,0.5398200016987921,0.011415420565217138,10.940485696455461,0.5923995952105604
164.0,20.95884764211206,0.5399901338205421,0.011410762845606734,10.940053959706871,0.5924071926605737
165.0,20.962339892517697,0.5401602584035762,0.011406106068278748,10.939622275129482,0.5924122806150532
166.0,20.965831619052885,0.540330375379399,0.011401450236780422,10.939190642802037,0.5924185003300589
167.0,20.969322821002493,0.5405004846795173,0.011396795363247596,10.938759062803426,0.5924247540680669
168.0,20.972813497651025,0.5406705862354392,0.01139214144349664,10.938327535212368,0.5924311194354267
169.0,20.97630364828232,0.5408406799786712,0.011387488459499268,10.937896060107114,0.5924378614549871
170.0,20.979793272180164,0.5410107658406845,0.011382836414637117,10.937464637566377,0.5924443536255923
171.0,20.98328236862864,0.541180843752982,0.011378185332889512,10.93703326766905,0.5924504266224101
172.0,20.98677093691165,0.5413509136470459,0.011373535215514933,10.936601950494035,0.5924564610197549
173.0,20.99025897631289,0.5415209754543563,0.011368886063743219,10.936170686120233,0.5924635436518999
174.0,20.993746486115853,0.5416910291063936,0.011364237878775886,10.93573947462655,0.5924686773066994
175.0,20.99723346560383,0.5418610745346298,0.011359590661785988,10.935308316091888,0.5924763552263149
176.0,21.0007199140588,0.5420311116702878,0.011354944388318468,10.934877210594255,0.5924823130949636
177.0,21.004205830760476,0.5422011404441233,0.011350299009076784,10.934446158209946,0.5924877840515212
178.0,21.007691214991354,0.5423711607875351,0.01134565459269983,10.934015159017681,0.5924933777394102
179.0,21.01117606603385,0.5425411726319673,0.011341011144603865,10.933584213096342,0.5924991205891404
180.0,21.014660383170206,0.5427111759088493,0.01133636866582538,10.93315332052481,0.5925049188860905
181.0,21.018144165682443,0.5428811705496167,0.011331727157379063,10.932722481381974,0.5925108533062888
182.0,21.021627412852418,0.5430511564856987,0.011327086620258662,10.932291695746725,0.5925175178838461
183.0,21.025110123961763,0.5432211336485157,0.011322447055437794,10.93186096369796,0.5925245941533006
184.0,21.02859229829192,0.5433911019694879,0.011317808463870531,10.93143028531457,0.592531943462507
185.0,21.032073935124124,0.543561061380038,0.01131317084649198,10.930999660675463,0.5925396397004958
186.0,21.035555033739207,0.5437310118115628,0.011308534185319115,10.930569089859258,0.5925468676505729
187.0,21.039035593418014,0.5439009531954798,0.011303898498528754,10.930138572944838,0.5925533082286213
188.0,21.042515613441182,0.5440708854631917,0.011299263789049495,10.929708110011111,0.5925598932038146
189.0,21.045995093089196,0.5442408085461065,0.011294630057748086,10.929277701136993,0.5925659657089352
190.0,21.049474031642312,0.5444107223756198,0.011289997305472584,10.928847346401398,0.5925728398418891
191.0,21.05295242838059,0.5445806268831394,0.011285365533052129,10.92841704588324,0.5925801117491153
192.0,21.056430282583854,0.5447505220000399,0.011280734738498974,10.927986799661362,0.5925856364865637
193.0,21.05990759353151,0.5449204076576462,0.011276104909616079,10.927556607814259,0.5925922774777826
194.0,21.06338436050303,0.5450902837873501,0.01127147605576463,10.92712647042086,0.5926008965388241
