k,PSNR,SSIM,mse,Log-Gradient,Angle
0.0,20.380142254859837,0.5120711072110132,0.0,11.011433616370967,0.582985164723739
1.0,20.383170122239875,0.5122116845462764,0.010161070856450953,11.011054772197149,0.5909324761350939
2.0,20.386705698517048,0.5123796060375153,0.011995429529140872,11.010619184324423,0.5910486651430824
3.0,20.390269282976774,0.5125496053889337,0.012135325010811375,11.010180529661334,0.5910965173862281
4.0,20.393836266418404,0.5127199525926995,0.012156049072996583,11.0097414937071,0.5911088823207551
5.0,20.397403939145242,0.5128904068987987,0.012159558485133374,11.00930237151099,0.5911160629924453
6.0,20.40097174016855,0.5130609102582179,0.012158602427970814,11.00886322537295,0.5911278011755748
7.0,20.40453950572363,0.5132314440135708,0.012156118913871193,11.008424073396869,0.5911416156498047
8.0,20.408107174068448,0.5134020007473997,0.012152993888505412,11.007984922632467,0.5911566237878859
9.0,20.411674720159958,0.513572577338978,0.012149577914291564,11.007545776039569,0.5911667918468961
10.0,20.415242131361033,0.5137431721700049,0.012146021614914926,11.007106634967446,0.5911744522810594
11.0,20.418809399538368,0.5139137842227326,0.012142361821661684,11.006667500300079,0.5911797358981001
12.0,20.4223765199433,0.5140844128920912,0.012138641261415164,11.00622837265687,0.5911868613149897
13.0,20.425943488774934,0.5142550577008131,0.012134869503128308,11.005789252508738,0.5911955376789727
14.0,20.429510303606683,0.5144257183388841,0.012131068507868444,11.005350140153302,0.591203360221027
15.0,20.433076962256322,0.5145963945034818,0.012127239772722405,11.004911035823374,0.5912121701450627
16.0,20.43664346316924,0.5147670859983748,0.012123393133423001,11.004471939714064,0.5912214484614359
17.0,20.44020980518566,0.5149377927014046,0.01211953721634815,11.00403285195562,0.5912313624529443
18.0,20.44377598712704,0.5151085144811519,0.012115671340357898,11.003593772657958,0.5912409153206258
19.0,20.447342008057795,0.5152792512227197,0.012111794228633182,11.00315470195597,0.5912514921603877
20.0,20.450907867117706,0.5154500028388224,0.012107912351236759,11.002715639961465,0.5912617252836372
21.0,20.454473563303672,0.515620769231037,0.01210402534774813,11.002276586724745,0.5912716184384984
22.0,20.45803909584737,0.5157915503272427,0.012100136889807824,11.001837542348524,0.5912812045392488
23.0,20.461604464020347,0.515962346059458,0.01209624733014038,11.0013985069237,0.5912903712487013
24.0,20.465169667036083,0.516133156354133,0.012092355005656925,11.000959480546353,0.5912993585299641
25.0,20.468734704133816,0.5163039811384671,0.01208846097073017,11.000520463298757,0.5913084127769158
26.0,20.472299574503023,0.5164748203345293,0.012084563141596175,11.00008145527246,0.5913184737127473
27.0,20.475864277391885,0.5166456738735569,0.01208066330177187,10.999642456549363,0.5913290010630728
28.0,20.479428812091204,0.5168165416886584,0.012076762416846241,10.99920346721402,0.5913394342249064
29.0,20.482993177873183,0.5169874237096281,0.01207286015280562,10.998764487351687,0.5913494735503982
30.0,20.486557374086875,0.5171583198727702,0.012068956865550826,10.99832551704489,0.5913591701967117
31.0,20.49012140006612,0.5173292301142592,0.012065052940717112,10.997886556374585,0.5913687218133916
32.0,20.49368525510358,0.5175001543682555,0.01206114845382838,10.997447605421275,0.5913781906399251
33.0,20.497248938479068,0.5176710925689,0.012057242908991222,10.997008664259695,0.5913878579149272
34.0,20.50081244949583,0.5178420446535926,0.012053337218192087,10.99656973296917,0.5913974697815306
35.0,20.50437578744194,0.5180130105577506,0.01204943063419142,10.996130811634787,0.5914069737661477
36.0,20.50793895160462,0.5181839902152316,0.012045522890024063,10.995691900336041,0.5914163687081909
37.0,20.511501941272982,0.5183549835603029,0.012041614091539199,10.995252999148473,0.5914256190633106
38.0,20.515064755752093,0.5185259905295718,0.012037704967433149,10.99481410814802,0.5914347948216894
39.0,20.51862739434926,0.518697011059775,0.012033795567638167,10.994375227408808,0.591443921528369
40.0,20.522189856375768,0.5188680450884134,0.012029886176964545,10.993936357007163,0.5914529365579951
41.0,20.525752141140355,0.5190390925525188,0.012025976520808666,10.993497497020533,0.5914618908075565
42.0,20.52931424795608,0.5192101533894437,0.012022066729397317,10.993058647526482,0.5914716440605464
43.0,20.532876176111742,0.5193812275358951,0.012018156693559802,10.992619808604713,0.5914813333644499
44.0,20.536437924915973,0.5195523149294164,0.012014246773884366,10.992180980331526,0.5914909278213732
45.0,20.539999493680266,0.5197234155076588,0.012010337035408257,10.991742162782616,0.5915004133592152
46.0,20.543560881715543,0.5198945292082112,0.012006427482281383,10.991303356033656,0.5915098500724446
47.0,20.54712208833218,0.5200656559686344,0.012002518118367202,10.990864560160293,0.5915191556301166
48.0,20.55068311283999,0.5202367957264361,0.01199860894727632,10.99042577523816,0.5915282921480818
49.0,20.5542439545482,0.5204079484190772,0.01199469997239555,10.989987001342874,0.5915373090851151
50.0,20.557804612765477,0.5205791139839812,0.011990791196912712,10.989548238550038,0.5915463109648974
51.0,20.561365086799622,0.5207502923584245,0.011986882594783987,10.989109486935154,0.5915551728731387
52.0,20.56492537595564,0.5209214834790116,0.011982973956135382,10.988670746573012,0.5915639313029065
53.0,20.568485479540687,0.52109268728306,0.0119790655277618,10.988232017539186,0.5915726783931312
54.0,20.57204539685901,0.5212639037077257,0.011975157182770113,10.987793299908942,0.5915813936423396
55.0,20.575605127214352,0.5214351326899518,0.011971248915977648,10.987354593757328,0.5915899859138434
56.0,20.579164669903115,0.5216063741657497,0.011967340261683264,10.986915899157475,0.5915984693297053
57.0,20.582724024228916,0.5217776280723466,0.011963431691869864,10.98647721618447,0.5916068128654798
58.0,20.586283189495145,0.5219488943470475,0.011959523227841554,10.98603854491361,0.5916150918730201
59.0,20.589842165005606,0.522120172926809,0.011955614937525462,10.985599885420418,0.5916233331349116
60.0,20.59340095006214,0.5222914637481597,0.011951706563512238,10.985161237781199,0.5916318933489437
61.0,20.596959543966587,0.5224627667478727,0.01194779826145828,10.984722602072486,0.5916405003072333
62.0,20.600517946019842,0.5226340818625116,0.011943890075715306,10.984283978369486,0.5916495908761983
63.0,20.604076155524403,0.5228054090290907,0.011939982148250759,10.98384536674759,0.5916586307450608
64.0,20.607634171782152,0.5229767481845697,0.011936074482205794,10.983406767282192,0.5916675830304391
65.0,20.611191994094366,0.5231480992658585,0.011932167080616063,10.982968180048713,0.5916763827043485
66.0,20.614749621740355,0.5233194622095184,0.011928259940218275,10.982529605117579,0.5916850563080546
67.0,20.618307054001747,0.5234908369520977,0.011924353059905357,10.982091042559931,0.5916935817741135
68.0,20.62186429017791,0.5236622234303576,0.011920446446252696,10.981652492451229,0.5917016829123964
69.0,20.625421329567626,0.5238336215810181,0.011916540101933852,10.981213954866954,0.5917092492939562
70.0,20.628978171469086,0.524005031340742,0.011912634029543106,10.980775429882602,0.5917186614082305
71.0,20.632534815179874,0.5241764526461453,0.011908728231597243,10.980336917573698,0.591728821012638
72.0,20.636091259996977,0.524347885433794,0.011904822710537197,10.979898418015782,0.591738227326187
73.0,20.6396475052168,0.524519329640207,0.01190091746872952,10.979459931284419,0.5917467668743065
74.0,20.643203550135127,0.5246907852018526,0.011897012508467468,10.979021457455191,0.5917547666398334
75.0,20.64675939404716,0.5248622520551435,0.011893107831972173,10.978582996603711,0.5917622629772452
76.0,20.650315036247484,0.5250337301364477,0.011889203441393393,10.978144548805604,0.5917695066955698
77.0,20.65387047603008,0.5252052193820825,0.011885299338810306,10.977706114136526,0.5917765202843367
78.0,20.657425712688337,0.5253767197283105,0.011881395526232049,10.97726769267215,0.5917833003649099
79.0,20.660980745515026,0.5255482311113524,0.011877492005598239,10.97682928448818,0.5917899578147677
80.0,20.66453557380231,0.5257197534673725,0.011873588777551142,10.976390889660335,0.5917963512051657
81.0,20.668090196841757,0.5258912867324854,0.011869685836621227,10.97595250826439,0.5918028401586756
82.0,20.671644613924332,0.5260628308427548,0.01186578318469962,10.975514140376136,0.5918092409483146
83.0,20.675198824340374,0.5262343857341928,0.011861880823621902,10.975075786071388,0.59181618920785
84.0,20.67875282737965,0.526405951342769,0.011857978755167684,10.97463744542598,0.5918231142516995
85.0,20.68230662233129,0.5265775276044,0.01185407698106047,10.974199118515774,0.5918298367641326
86.0,20.68586020848384,0.5267491144549538,0.011850175502967374,10.97376080541665,0.5918370145722068
87.0,20.68941358512518,0.5269207118302445,0.011846274308306336,10.973322506204465,0.5918445929855348
88.0,20.69296675154236,0.5270923196660436,0.011842373379375515,10.972884220955079,0.5918519963585601
89.0,20.69651970702163,0.5272639378980456,0.011838472743478545,10.972445949744513,0.5918592085088262
90.0,20.700072450848666,0.5274355664619069,0.011834572402021348,10.972007692648813,0.591866126394108
91.0,20.703624982308533,0.5276072052932292,0.011830672356364579,10.971569449744045,0.5918738319484621
92.0,20.70717730068568,0.5277788543275612,0.01182677260782348,10.971131221106297,0.5918821852766467
93.0,20.71072940526397,0.5279505135004081,0.01182287315766765,10.97069300681168,0.5918907549410889
94.0,20.714281295326657,0.5281221827472256,0.011818974007121027,10.970254806936325,0.5918987955663554
95.0,20.717832970157147,0.5282938620034141,0.011815075142708966,10.969816621556411,0.5919066403564021
96.0,20.721384429041272,0.5284655512043219,0.011811176508215355,10.969378450748238,0.5919159826326231
97.0,20.72493567125942,0.5286372502850784,0.011807278166794458,10.968940294587151,0.5919246837172677
98.0,20.728486696090194,0.5288089591805697,0.01180338010396093,10.96850215314759,0.5919326719505928
99.0,20.73203750281388,0.5289806778260088,0.01179948234191611,10.96806402650581,0.5919415182080808
100.0,20.735588090710124,0.5291524061565558,0.011795584881667188,10.967625914738083,0.591950191227185
101.0,20.739138459057976,0.5293241441073305,0.011791687724176752,10.967187817920708,0.5919582850821508
102.0,20.742688607135904,0.529495891613397,0.011787790870362596,10.966749736130001,0.5919670110139418
103.0,20.746238534221764,0.5296676486097773,0.011783894321097901,10.96631166944231,0.5919756717280179
104.0,20.749788239592803,0.5298394150314415,0.011779998077210668,10.965873617933996,0.5919838619606732
105.0,20.75333772252568,0.5300111908133135,0.011776102139483628,10.965435581681445,0.5919916506421309
106.0,20.756886982296443,0.530182975890266,0.011772206508653713,10.964997560761072,0.5919992298180511
107.0,20.760436018180553,0.53035477019713,0.01176831118541169,10.964559555249306,0.5920069406054503
108.0,20.76398482945285,0.5305265736686776,0.011764416170401705,10.964121565222605,0.5920146069403881
109.0,20.767533415385337,0.5306983862402063,0.01176052153091976,10.96368359075441,0.5920222227013116
110.0,20.771081775250977,0.530870207846551,0.011756627217648892,10.963245631920376,0.5920297812443516
111.0,20.774629908322787,0.5310420384223481,0.011752733209985208,10.962807688797028,0.5920370677593064
112.0,20.778177813873185,0.5312138779021882,0.011748839506525064,10.962369761460923,0.5920434871003865
113.0,20.781725491174004,0.5313857262205969,0.011744946107719118,10.961931849988643,0.5920497584957243
114.0,20.785272939496476,0.5315575833120699,0.011741053013974124,10.961493954456792,0.5920563612944619
115.0,20.78882015811105,0.5317294491110254,0.011737160222175377,10.961056074941752,0.5920628926430807
116.0,20.792367146282388,0.5319013235508963,0.011733267655459532,10.960618211513012,0.5920692378117305
117.0,20.79591390327927,0.5320732065658569,0.011729375373139162,10.96018036424633,0.5920755364744764
118.0,20.79946042837062,0.5322450980902151,0.011725483391500093,10.959742533218446,0.5920824532877952
119.0,20.803006720824055,0.5324169980581223,0.011721591682286843,10.959304718505049,0.5920893147193657
120.0,20.806552779904983,0.532588906403397,0.01171770016725419,10.958866920179297,0.5920964745742866
121.0,20.810098604879,0.5327608230598785,0.011713808890628332,10.958429138315797,0.592103665209642
122.0,20.8136441950082,0.5329327479609104,0.011709917782481434,10.95799137298677,0.5921108698779981
123.0,20.817189549558243,0.5331046810405061,0.011706026936174944,10.957553624268666,0.592118063111462
124.0,20.820734667794735,0.5332766222327375,0.01170213637272893,10.957115892238544,0.5921249936329153
125.0,20.824279548982744,0.5334485714716343,0.011698246093085559,10.95667817697349,0.5921317598879187
126.0,20.82782419238615,0.5336205286909285,0.011694356059168848,10.956240478549715,0.5921388215633444
127.0,20.83136859726837,0.5337924938243559,0.011690466274006188,10.9558027970436,0.5921447683486533
128.0,20.834912762892806,0.5339644668058178,0.011686576770141618,10.955365132532334,0.5921521584376486
129.0,20.838456688519678,0.5341364475690543,0.011682687524523429,10.954927485091318,0.5921593055361073
130.0,20.84200037341022,0.5343084360477323,0.011678798542291731,10.954489854797028,0.5921661620014996
131.0,20.845543816823458,0.5344804321751186,0.011674909694625594,10.954052241721351,0.5921722515445361
132.0,20.849087018020125,0.5346524358849165,0.011671021104927504,10.95361464594074,0.5921800612335054
133.0,20.85262997626093,0.5348244471108513,0.011667132798604124,10.953177067532597,0.5921878575440741
134.0,20.856172690805977,0.5349964657866069,0.011663244777004972,10.952739506574355,0.5921953714323006
135.0,20.859715160918114,0.5351684918459466,0.01165935702715117,10.952301963142887,0.5922027739958586
136.0,20.86325738586399,0.5353405252227165,0.011655469524628113,10.951864437314192,0.5922099342094794
137.0,20.866799364901595,0.535512565850358,0.0116515822953895,10.951426929165617,0.5922168223266088
138.0,20.87034109728766,0.5356846136623267,0.011647695332303509,10.95098943877391,0.5922235782263991
139.0,20.873882582279144,0.5358566685920926,0.011643808652957832,10.950551966216455,0.5922305702352691
140.0,20.877423819132712,0.5360287305730916,0.01163992226520661,10.950114511570904,0.5922378385510118
141.0,20.880964807104473,0.5362007995387231,0.011636036167358204,10.949677074914947,0.5922449164731333
142.0,20.884505545449954,0.5363728754223435,0.011632150360812108,10.949239656326316,0.5922534156704617
143.0,20.888046033424143,0.5365449581572674,0.011628264846943922,10.948802255882775,0.5922607143898029
144.0,20.89158627028057,0.5367170476764759,0.011624379612570243,10.94836487366047,0.5922677422505921
145.0,20.89512625527265,0.5368891439130602,0.011620494666004474,10.947927509736436,0.5922747666800646
146.0,20.898665987653683,0.5370612468002203,0.011616610015513526,10.947490164188546,0.5922815070740322
147.0,20.902205466676346,0.5372333562711202,0.011612725662398946,10.947052837094711,0.5922880999245498
148.0,20.90574469159328,0.5374054722588789,0.0116088416060226,10.946615528532874,0.5922944647415818
149.0,20.909283661656765,0.5375775946966038,0.011604957841031981,10.946178238581023,0.5923012324079125
150.0,20.91282237611853,0.5377497235173424,0.011601074367630316,10.945740967317192,0.5923088008208574
151.0,20.91636083422973,0.5379218586541148,0.01159719118729158,10.945303714819445,0.5923167811634745
152.0,20.91989903524095,0.5380940000398979,0.011593308301473912,10.944866481165887,0.5923248370788189
153.0,20.923436978401977,0.5382661476075872,0.011589425685869128,10.944429266434051,0.5923322980789631
154.0,20.926974662962134,0.538438301290065,0.011585543350816538,10.943992070701722,0.592339536075742
155.0,20.93051208817025,0.5386104610201811,0.011581661306782601,10.943554894047052,0.5923475132378963
156.0,20.934049253274342,0.5387826267306962,0.011577779525255532,10.943117736547894,0.5923551859206128
157.0,20.93758615752181,0.5389547983543896,0.011573898013458577,10.942680598281884,0.5923629101693096
158.0,20.941122800159558,0.53912697582408,0.011570016768773422,10.942243479326557,0.5923707195454478
159.0,20.94465918043425,0.5392991590724937,0.011566135830385104,10.94180637976033,0.5923786229545421
160.0,20.948195297591976,0.5394713480323244,0.0115622551997623,10.941369299661657,0.5923839974584483
161.0,20.95173115087773,0.5396435426361162,0.011558374844798802,10.940932239107903,0.5923921646487477
162.0,20.955266739536444,0.5398157428164848,0.011554494799821546,10.940495198177587,0.5923999872852828
163.0,20.958802062812477,0.5399879485060053,0.0115506150671554,10.940058176949295,0.5924076176227857
164.0,20.962337119949606,0.5401601596372166,0.011546735648182165,10.939621175501655,0.5924127843358514
165.0,20.965871910190867,0.5403323761425979,0.011542856520969655,10.939184193913023,0.592418899700433
166.0,20.969406432778875,0.5405045979546088,0.011538977709902584,10.938747232262108,0.5924250668447436
167.0,20.972940686955663,0.540676825005678,0.011535099216649636,10.938310290627651,0.5924319491159881
168.0,20.976474671962173,0.5408490572281947,0.011531221024212253,10.937873369087878,0.5924388602744721
169.0,20.980008387038644,0.5410212945545017,0.011527343125715033,10.93743646772125,0.5924455148557822
170.0,20.98354183142519,0.5411935369169084,0.011523465540676773,10.936999586606575,0.5924517793870031
171.0,20.987075004361525,0.5413657842476859,0.011519588278365044,10.936562725822762,0.5924576993306704
172.0,20.990607905086765,0.5415380364790795,0.011515711339979948,10.936125885448767,0.5924641690897694
173.0,20.994140532839438,0.5417102935432848,0.011511834726692944,10.935689065563583,0.592469646819573
174.0,20.99767288685748,0.5418825553724664,0.011507958439646967,10.935252266246243,0.5924774015379412
175.0,21.001204966378232,0.542054821898749,0.01150408247995686,10.934815487575822,0.5924837477726258
176.0,21.004736770634572,0.5422270930533762,0.011500206762920304,10.934378729628328,0.5924895390528366
177.0,21.00826829886198,0.5423993687682264,0.01149633135527668,10.9339419924823,0.5924954749902578
178.0,21.01179955029594,0.5425716489752855,0.011492456274062481,10.933505276216897,0.5925013589978305
179.0,21.01533052417137,0.5427439336065245,0.011488581520275393,10.933068580911325,0.5925072803176875
180.0,21.018861219722595,0.5429162225938611,0.011484707094891081,10.932631906644831,0.5925129047855869
181.0,21.022391636183322,0.5430885158691848,0.01148083299886414,10.932195253496701,0.5925182124273602
182.0,21.025921772786692,0.5432608133643427,0.011476959233128917,10.931758621546269,0.5925246655132727
183.0,21.02945162876525,0.5434331150111483,0.011473085798600319,10.931322010872908,0.5925329378051201
184.0,21.03298120335094,0.5436054207413775,0.011469212696174336,10.930885421556031,0.5925411045931427
185.0,21.036510495774927,0.5437777304867627,0.01146533991134567,10.930448853674871,0.592548780991875
186.0,21.040039505267906,0.5439500441790039,0.011461467454980027,10.930012307308843,0.5925558879169238
187.0,21.043568231060057,0.5441223617497659,0.011457595333719336,10.929575782537489,0.5925626187032894
188.0,21.047096672380952,0.5442946831306865,0.01145372354839304,10.929139279440397,0.5925692214088163
189.0,21.050624828459583,0.5444670082533524,0.011449852099812422,10.928702798097191,0.5925762173442409
190.0,21.05415269852432,0.5446393370493258,0.011445980988770369,10.928266338587536,0.5925832586296179
191.0,21.05768028180296,0.5448116694501223,0.0114421102160412,10.92782990099114,0.5925892445022526
192.0,21.06120757752239,0.5449840053871552,0.01143823976362379,10.927393485387281,0.5925973459218651
193.0,21.06473458490919,0.5451563447918669,0.011434369640145662,10.926957091855726,0.5926045545178709
194.0,21.068261303189363,0.5453286875956639,0.011430499847814803,10.926520720476315,0.5926109771848824
