k,PSNR,SSIM,mse,Log-Gradient,Angle
0.0,20.380142254859837,0.5120711072110132,0.0,11.011433616370967,0.582985164723739
1.0,20.38316948917908,0.5122116551528806,0.010158946609270613,11.011054851408522,0.5909324743446616
2.0,20.386703693192068,0.5123795121319461,0.011990827538332857,11.010619433831335,0.5910486645907778
3.0,20.39026516032085,0.5125494114069405,0.01212819974618537,11.010181041200676,0.5910965078800117
4.0,20.393829280687733,0.5127196228887586,0.012146390204439087,11.009742359101532,0.5911088656846596
5.0,20.397393344483262,0.5128899057964785,0.01214736440214925,11.00930368260724,0.5911160235204166
6.0,20.40095679072327,0.5130602020623733,0.012143873795068386,11.008865074028675,0.5911277601581209
7.0,20.404519455682674,0.5132304930143246,0.012138857199481498,11.008426551476711,0.591141587159966
8.0,20.408081277672547,0.5134007712217402,0.0121332008841817,11.007988122006488,0.5911565721428585
9.0,20.411642231709326,0.5135710335515444,0.0121272555782729,11.007549788582441,0.5911667179560219
10.0,20.415202305218592,0.5137412783734492,0.012121171980279611,11.007111552558115,0.5911743345153339
11.0,20.418761490132304,0.5139115046580187,0.012114986948036683,11.006673414821467,0.5911795999201753
12.0,20.422319781769005,0.5140817117887093,0.012108743245123102,11.006235375995619,0.5911867154745704
13.0,20.425877176396426,0.5142518992769328,0.012102450444836233,11.00579743655507,0.5911953716353123
14.0,20.42943367165816,0.5144220668015179,0.012096130536270368,11.005359596800803,0.5912031629360858
15.0,20.432989265443197,0.5145922140485862,0.01208978500730612,11.004921856968906,0.5912119621551953
16.0,20.436543956269574,0.5147623408110157,0.012083423715796801,11.00448421725757,0.5912212240460721
17.0,20.440097743051055,0.5149324469558331,0.012077055291751869,11.004046677800039,0.5912311036636498
18.0,20.443650624683638,0.5151025323408804,0.012070679050004026,11.003609238709139,0.5912406428658875
19.0,20.44720260030725,0.5152725968406369,0.012064293712919021,11.00317190012256,0.5912511934489347
20.0,20.45075366913842,0.5154426403573077,0.012057905769586642,11.002734662154738,0.5912613879374252
21.0,20.454303830251664,0.5156126627820244,0.012051514848556273,11.002297524858538,0.591271225711881
22.0,20.457853082957307,0.5157826640323345,0.012045124633870334,11.001860488339096,0.5912807665223742
23.0,20.461401426606415,0.515952644029987,0.012038735472912444,11.001423552689667,0.591289888104766
24.0,20.464948860492992,0.5161226026912492,0.012032345702069165,11.000986718008582,0.5912988231166791
25.0,20.46849538393774,0.5162925399332334,0.012025956375892363,11.000549984380228,0.5913078486369477
26.0,20.472040996212677,0.516462455668025,0.012019565410279954,11.000113351898166,0.5913178839810029
27.0,20.475585696649436,0.5166323498169461,0.012013174588881001,10.999676820646231,0.5913283615320247
28.0,20.479129484623325,0.5168022223032881,0.012006784882463789,10.999240390710774,0.5913387304958759
29.0,20.48267235949193,0.5169720730471251,0.012000395955298792,10.998804062178765,0.5913487021180235
30.0,20.48621432069097,0.5171419019751097,0.011994008159090665,10.99836783513433,0.5913583411092992
31.0,20.489755367641322,0.5173117090138599,0.011987621887410477,10.997931709659934,0.5913678384625297
32.0,20.493295499723917,0.5174814940880633,0.011981237211313016,10.99749568583747,0.5913772418689904
33.0,20.49683471630791,0.5176512571224864,0.011974853636310762,10.997059763742941,0.5913868821059194
34.0,20.500373016786646,0.5178209980452252,0.011968472072209406,10.99662394345691,0.5913964314623519
35.0,20.503910400539375,0.5179907167824883,0.011962091765610817,10.99618822506555,0.591405870904034
36.0,20.507446866945443,0.518160413258995,0.011955712455704016,10.995752608649308,0.591415210358621
37.0,20.510982415387122,0.5183300873999833,0.011949334248080624,10.995317094284598,0.5914243897706377
38.0,20.514517045263652,0.5184997391331331,0.011942957877017213,10.99488168204811,0.5914334684389447
39.0,20.51805075597736,0.5186693683863056,0.01193658338482621,10.994446372014616,0.5914425238463261
40.0,20.521583546935517,0.5188389750882263,0.011930211057493454,10.994011164261037,0.591451447783185
41.0,20.525115417543965,0.5190085591672426,0.011923840619727535,10.993576058865298,0.5914603990593701
42.0,20.5286463672137,0.5191781205521129,0.011917472211818433,10.993141055905278,0.5914700808965975
43.0,20.532176395331625,0.5193476591710036,0.011911105701883171,10.992706155461063,0.5914796696631551
44.0,20.53570550130705,0.5195171749530635,0.01190474147974146,10.992271357608963,0.591489181272947
45.0,20.53923368455235,0.5196866678276014,0.011898379596732586,10.991836662424715,0.5914985772856567
46.0,20.5427609444803,0.5198561377239664,0.011892020056741967,10.991402069983923,0.5915079261019254
47.0,20.546287280504103,0.5200255845715509,0.011885662863367294,10.990967580362062,0.5915171554413162
48.0,20.549812692037356,0.5201950082997868,0.011879308019952146,10.990533193634489,0.5915262244884629
49.0,20.55333717849407,0.5203644088381514,0.011872955529615085,10.99009890987644,0.5915351471620468
50.0,20.556860739288652,0.5205337861161646,0.01186660539527466,10.989664729163037,0.5915440697876836
51.0,20.560383373835567,0.5207031400632745,0.01186025758464494,10.98923065156917,0.5915528425913268
52.0,20.563905081547574,0.5208724706083795,0.011853911897581743,10.988796677168953,0.5915615343824222
53.0,20.567425861840498,0.5210417776811563,0.01184756857659117,10.988362806037165,0.591570153638585
54.0,20.570945714128236,0.5212110612112161,0.011841227492703738,10.987929038248168,0.5915787881638576
55.0,20.574464637825063,0.5213803211280286,0.011834888634978492,10.987495373875998,0.5915873414812749
56.0,20.577982632339044,0.5215495573602398,0.011828551543612975,10.987061812992673,0.591595729550945
57.0,20.58149969708637,0.521718769837801,0.011822216688866816,10.986628355672078,0.5916040297228405
58.0,20.585015831484075,0.5218879584908116,0.011815884098648283,10.986195001988193,0.5916121993231033
59.0,20.588531034950286,0.5220571232490602,0.011809553787563298,10.985761752015282,0.5916203518013757
60.0,20.592045306902502,0.5222262640420993,0.011803225578498376,10.98532860582804,0.5916286969019066
61.0,20.595558646759105,0.5223953807997682,0.011796899599502565,10.984895563501308,0.591637161222663
62.0,20.599071053938594,0.5225644734518055,0.01179057589513008,10.984462625108545,0.5916459549851462
63.0,20.60258252786195,0.5227335419284708,0.011784254602190777,10.984029790723286,0.5916548855501609
64.0,20.606093067950546,0.5229025861600555,0.0117779357235533,10.98359706041898,0.5916637358254051
65.0,20.609602673626135,0.5230716060768957,0.01177161926198054,10.983164434268984,0.591672508645363
66.0,20.6131113442936,0.5232406016091206,0.01176530521420449,10.982731912342526,0.591681059732297
67.0,20.61661907935313,0.5234095726868193,0.011758993576549345,10.982299494707558,0.5916895864642603
68.0,20.620125878227526,0.523578519240446,0.01175268435732057,10.981867181437167,0.5916977980307871
69.0,20.623631740340024,0.5237474412004942,0.011746377558919982,10.981434972604351,0.5917055362377299
70.0,20.627136665114236,0.5239163384974941,0.011740073183669862,10.98100286828203,0.5917133633001761
71.0,20.63064065197416,0.5240852110620177,0.011733771233814822,10.980570868543031,0.5917234126186349
72.0,20.63414370034422,0.5242540588246715,0.011727471711523375,10.980138973460102,0.5917331689490151
73.0,20.63764580964921,0.524422881716112,0.011721174618889432,10.979707183105907,0.5917419651362134
74.0,20.64114697931432,0.5245916796670211,0.011714879957933477,10.979275497553019,0.5917501331536463
75.0,20.644647208765146,0.5247604526081305,0.011708587730603603,10.978843916873934,0.5917577580872251
76.0,20.64814649742766,0.5249292004702052,0.011702297938776413,10.978412441141064,0.5917650330966786
77.0,20.651644844728246,0.5250979231840537,0.011696010584257744,10.97798107042673,0.5917720656307585
78.0,20.655142250093675,0.5252666206805198,0.011689725668783246,10.977549804803182,0.5917788546733376
79.0,20.658638712951095,0.5254352928904871,0.011683443194018922,10.977118644342575,0.5917854582246532
80.0,20.662134232728064,0.5256039397448774,0.011677163161561472,10.976687589116986,0.5917919254574125
81.0,20.665628808852524,0.5257725611746574,0.011670885567079861,10.976256639198429,0.5917982334380748
82.0,20.669122440752815,0.5259411571108258,0.011664610409572377,10.975825794658835,0.5918046034855124
83.0,20.67261512785768,0.5261097274844216,0.011658337690595112,10.975395055570056,0.5918109004293127
84.0,20.676106869596257,0.5262782722265308,0.011652067411648006,10.974964422003856,0.591817844474506
85.0,20.67959766539807,0.5264467912682711,0.011645799574174734,10.974533894031916,0.5918246001639754
86.0,20.683087514693025,0.5266152845408091,0.01163953417255622,10.974103471725815,0.59183114944339
87.0,20.68657641691133,0.5267837519753504,0.011633271175114855,10.973673155156943,0.5918383573567852
88.0,20.69006437148374,0.5269521935031403,0.011627010625627132,10.973242944396723,0.5918457607632986
89.0,20.693551377841004,0.5271206090554504,0.011620752517111697,10.972812839516557,0.5918529395040296
90.0,20.697037435414213,0.5272889985635861,0.01161449684892361,10.972382840587775,0.5918599679684892
91.0,20.700522543634854,0.5274573619588977,0.011608243622138407,10.971952947681627,0.5918666962193668
92.0,20.704006701934816,0.5276256991727657,0.011601992837786077,10.971523160869271,0.5918744095056929
93.0,20.707489909746396,0.5277940101366283,0.011595744496850701,10.971093480221784,0.5918825578271872
94.0,20.710972166502316,0.5279622947819508,0.011589498600270436,10.97066390581016,0.5918909689053907
95.0,20.7144534716374,0.5281305530402368,0.01158325511530003,10.970234437705356,0.5918986713009992
96.0,20.717933824588,0.5282987848430368,0.011577014022273796,10.969805075978291,0.5919068149384709
97.0,20.721413224788044,0.5284669901219424,0.011570775377221044,10.969375820699694,0.5919160820223847
98.0,20.724891671668914,0.5286351688080969,0.011564539144614661,10.968946671937807,0.5919245985548829
99.0,20.728369164665125,0.5288033208331345,0.011558305353318995,10.968517629763005,0.5919323935661556
100.0,20.73184570321187,0.5289714461287779,0.011552074006891963,10.968088694245775,0.5919408778811163
101.0,20.73532128674474,0.5291395446267935,0.011545845106013622,10.967659865456522,0.5919495502545361
102.0,20.738795914699757,0.5293076162589896,0.011539618651319365,10.967231143465566,0.5919573937425736
103.0,20.742269586513352,0.5294756609572185,0.011533394643399867,10.966802528343143,0.5919657934432995
104.0,20.74574230162236,0.5296436786533674,0.011527173082801049,10.966374020159401,0.5919742615211382
105.0,20.74921405946407,0.5298116692793732,0.011520953970023727,10.965945618984406,0.5919822847596119
106.0,20.752684859476133,0.5299796327672143,0.011514737305523421,10.965517324888136,0.5919899444673508
107.0,20.756154701096662,0.5301475690489109,0.011508523089709986,10.965089137940488,0.5919973552240133
108.0,20.75962358376419,0.5303154780565281,0.011502311322947214,10.96466105821127,0.5920048398676135
109.0,20.76309150691676,0.5304833597223885,0.011496102031278271,10.964233085769013,0.592012319881588
110.0,20.76655846999177,0.530651213979132,0.011489895245103762,10.963805220680712,0.5920196650995188
111.0,20.77002447242894,0.5308190407589578,0.011483690906943268,10.963377463015906,0.5920270542461957
112.0,20.773489513668444,0.5309868399940977,0.011477489014916848,10.96294981284407,0.5920343672991532
113.0,20.776953593150886,0.5311546116168314,0.011471289566968757,10.962522270234597,0.5920409430611099
114.0,20.7804167103173,0.5313223555594792,0.011465092563226987,10.962094835256801,0.592046849472425
115.0,20.783878864609157,0.531490071754401,0.011458898003776261,10.961667507979906,0.5920532296109488
116.0,20.787340055466434,0.531657760133719,0.011452705860858262,10.961240288470474,0.5920596551457037
117.0,20.790800282327293,0.5318254206290401,0.011446516080836045,10.9608131767919,0.5920658959945039
118.0,20.794259544634556,0.5319930531728698,0.01144032873956152,10.960386173013198,0.5920719742554724
119.0,20.797717841831492,0.5321606576977631,0.011434143837127849,10.959959277203296,0.5920783568542389
120.0,20.801175173360235,0.532328234136051,0.011427961304842853,10.959532489428586,0.5920850448186866
121.0,20.804631538663557,0.5324957824201393,0.011421781145489005,10.959105809755576,0.5920918384099104
122.0,20.808086937183003,0.5326633024821196,0.011415603321265452,10.958679238249044,0.5920988061200178
123.0,20.811541368360498,0.5328307942541949,0.011409427820686234,10.958252774974415,0.592105819347926
124.0,20.8149948316416,0.5329982576691487,0.011403254734279947,10.957826420000233,0.5921129242423029
125.0,20.81844732647248,0.533165692659851,0.011397084067809544,10.9574001733951,0.5921198970595322
126.0,20.821898852299757,0.5333330991592117,0.011390915821903836,10.95697403522754,0.5921270192490075
127.0,20.82534940856979,0.5335004770998887,0.011384749949945818,10.95654800556489,0.5921319120291132
128.0,20.82879899472981,0.5336678264147477,0.011378586472422491,10.956122084474991,0.5921389439491928
129.0,20.832247610227498,0.5338351470368647,0.011372425409809981,10.955696272025877,0.5921460332063768
130.0,20.83569525450865,0.5340024388991546,0.011366266731527333,10.955270568283822,0.5921530157684508
131.0,20.839141927021757,0.5341697019346833,0.011360110454288268,10.954844973316433,0.5921598874642785
132.0,20.842587627213685,0.534336936076178,0.011353956440883425,10.954419487186374,0.5921664480625995
133.0,20.846032354534145,0.5345041412568907,0.011347804828130564,10.953994109961108,0.5921723013523129
134.0,20.8494761084337,0.5346713174101704,0.011341655633523505,10.95356884170861,0.5921798500691481
135.0,20.852918888363337,0.534838464469405,0.011335508858095962,10.953143682496767,0.5921873741716278
136.0,20.856360693778395,0.535005582368184,0.011329364485260259,10.9527186323927,0.5921946175290841
137.0,20.85980152413739,0.5351726710401272,0.011323222483920056,10.952293691462646,0.5922017557623921
138.0,20.863241378892603,0.5353397304187509,0.011317082900971834,10.951868859774232,0.592208685371501
139.0,20.866680257495652,0.5355067604375899,0.011310945711704318,10.951444137394091,0.592215353368963
140.0,20.870118159399752,0.5356737610302832,0.011304810943472151,10.951019524389675,0.5922218902164728
141.0,20.873555084058705,0.5358407321305306,0.011298678599684128,10.95059502082844,0.5922284921916017
142.0,20.87699103092676,0.536007673672087,0.011292548681334459,10.950170626777762,0.5922355314651417
143.0,20.880425999458666,0.5361745855887515,0.011286421186671093,10.949746342304953,0.5922422551918191
144.0,20.883859989109638,0.5363414678143773,0.011280296116432574,10.949322167477252,0.5922508031046346
145.0,20.887292999334477,0.5365083202825649,0.011274173455411587,10.948898102360106,0.5922580490960657
146.0,20.890725029589,0.5366751429271436,0.01126805321378697,10.948474147019901,0.5922647876679579
147.0,20.894156079329864,0.5368419356821289,0.011261935399061023,10.948050301523661,0.5922711129309471
148.0,20.8975861480142,0.5370086984815846,0.011255820012219461,10.947626565938327,0.5922771911019428
149.0,20.901015235099614,0.5371754312596301,0.011249707054221195,10.947202940330772,0.5922832993327174
150.0,20.904443340044637,0.5373421339504453,0.0112435965241895,10.946779424767792,0.5922897784366107
151.0,20.907870462308544,0.5375088064882668,0.011237488418418996,10.946356019316111,0.5922963909430533
152.0,20.91129660135108,0.5376754488073833,0.011231382734939668,10.945932724042393,0.5923033160963187
153.0,20.91472175663246,0.5378420608421407,0.011225279474871336,10.945509539013223,0.5923104345942131
154.0,20.918145927613395,0.5380086425269356,0.011219178639318041,10.945086464295118,0.5923186382764275
155.0,20.921569113754792,0.5381751937961665,0.011213080195396274,10.944663499953743,0.5923267347536113
156.0,20.924991314518277,0.5383417145843294,0.011206984170741114,10.944240646055299,0.5923338448800167
157.0,20.92841252936591,0.5385082048259681,0.0112008905600878,10.943817902665968,0.5923410766342344
158.0,20.93183275775989,0.5386746644556317,0.0111947993271261,10.943395269851239,0.5923483641004929
159.0,20.935251999163228,0.5388410934080078,0.011188710511440717,10.942972747677008,0.5923556130777891
160.0,20.93867025303931,0.5390074916178799,0.01118262409386421,10.94255033620864,0.5923630031307753
161.0,20.942087518852283,0.5391738590200443,0.011176540110425582,10.942128035512194,0.5923706959244482
162.0,20.94550379606657,0.5393401955493071,0.011170458549793216,10.941705845653253,0.5923783609059124
163.0,20.948919084146972,0.5395065011405068,0.011164379403475887,10.941283766697016,0.5923841332432647
164.0,20.952333382559072,0.539672775728601,0.01115830269486834,10.940861798709335,0.5923915640998941
165.0,20.955746690768912,0.539839019248606,0.01115222842501954,10.940439941755997,0.5923993140441226
166.0,20.959159008242935,0.5400052316355698,0.011146156578626292,10.940018195902505,0.5924067276826258
167.0,20.962570334448102,0.5401714128246061,0.01114008716621605,10.93959656121441,0.5924121046105107
168.0,20.9659806688519,0.5403375627508944,0.011134020195716134,10.939175037757286,0.5924183115841843
169.0,20.96939001092215,0.5405036813496663,0.011127955662469276,10.938753625596465,0.592424359564143
170.0,20.972798360126657,0.5406697685562082,0.011121893547374964,10.938332324796743,0.5924302970116889
171.0,20.97620571593388,0.5408358243058562,0.01111583385436312,10.937911135423297,0.5924361062710505
172.0,20.979612077813215,0.5410018485340023,0.011109776606901295,10.937490057541421,0.5924421119873091
173.0,20.983017445234555,0.5411678411761047,0.011103721805859891,10.937069091216332,0.592449083905869
174.0,20.986421817668244,0.5413338021676709,0.011097669452080645,10.936648236513182,0.5924560806856242
175.0,20.989825194585116,0.5414997314442586,0.011091619546376915,10.936227493497048,0.5924626745578611
176.0,20.99322757545645,0.5416656289414837,0.011085572089533589,10.935806862232937,0.5924678675479504
177.0,20.996628959753888,0.5418314945949995,0.01107952707884956,10.93538634278567,0.5924735807801021
178.0,21.00002934694572,0.5419973283396498,0.011073484417239977,10.934965935216804,0.5924790750983367
179.0,21.00342873650442,0.5421631301111588,0.011067444197207343,10.934545639590915,0.5924840609223868
180.0,21.006827127903136,0.5423288998453497,0.011061406424786369,10.9341254559727,0.592489327184411
181.0,21.010224520615473,0.5424946374781104,0.011055371100635028,10.933705384426776,0.5924954989062978
182.0,21.013620914115513,0.5426603429453768,0.011049338225388998,10.933285425017703,0.5925024952485055
183.0,21.01701630787783,0.5428260161831383,0.011043307799662389,10.93286557780996,0.5925102010129158
184.0,21.02041070137745,0.5429916571274558,0.011037279824048413,10.932445842867965,0.5925174135519001
185.0,21.0238040940899,0.5431572657144287,0.01103125429911984,10.932026220256063,0.5925238434908598
186.0,21.02719648549116,0.5433228418802225,0.01102523122542963,10.931606710038531,0.5925297157380023
187.0,21.03058787505763,0.5434883855610522,0.011019210597047361,10.93118731227948,0.5925357269261006
188.0,21.0339782622661,0.5436538966931878,0.011013192406966587,10.930768027042841,0.5925422592463946
189.0,21.037367646594,0.5438193752129659,0.011007176670097504,10.93034885439268,0.5925486734343749
190.0,21.04075602751923,0.5439848210567734,0.011001163386920264,10.929929794392997,0.5925551170735973
191.0,21.044143404520185,0.5441502341610548,0.010995152557895387,10.929510847107716,0.5925611137640315
192.0,21.047529777075724,0.5443156144623144,0.010989144183463386,10.929092012600695,0.5925670763860741
193.0,21.05091514466517,0.5444809618971098,0.010983138264044729,10.928673290935713,0.5925750741964297
194.0,21.054299506768146,0.5446462764020069,0.010977134787983145,10.928254682176169,0.5925812184430407
