k,PSNR,SSIM,mse,Log-Gradient,Angle
0.0,20.380142254859837,0.5120711072110132,0.0,11.011433616370967,0.582985164723739
1.0,20.383170161814963,0.5122116863837687,0.010161203651396637,11.011054767245337,0.5909324762470191
2.0,20.386705823886505,0.5123796119083243,0.011995717246892473,11.010619168725675,0.5910486651771355
3.0,20.390269540736696,0.5125496175172158,0.012135770532092752,11.01018049767845,0.5910965179801922
4.0,20.393836703217563,0.5127199732081879,0.012156653078608401,11.009741439596246,0.5911088833584429
5.0,20.397404601649846,0.5128904382336559,0.01216032111089342,11.009302289525545,0.5911160654577228
6.0,20.400972675054916,0.513060954546274,0.012159523667487845,11.008863109764327,0.5911278037276074
7.0,20.404540759675992,0.513231503490078,0.012157198710478568,11.008423918414765,0.5911416174290044
8.0,20.40810879377812,0.5134020776489282,0.012154232165306283,11.007984722524956,0.5911566270146829
9.0,20.411676752324937,0.5135726739033709,0.012150974583934066,11.007545525053153,0.5911667964659183
10.0,20.415244622685815,0.5137432906363584,0.012147576585331162,11.007106327347072,0.5911744596430025
11.0,20.41881239673376,0.5139139268313766,0.012144074999084545,11.006667130289163,0.5911797444011606
12.0,20.422380069726355,0.5140845818845707,0.012140512549744333,11.006227934497304,0.5911868704408831
13.0,20.425947637868834,0.514255255319891,0.012136898805951493,11.005788740440897,0.5911955480687118
14.0,20.429515098740648,0.5144259468285177,0.012133255726981507,11.00534954841607,0.5912033726092323
15.0,20.43308245016556,0.5145966561088281,0.012129584810455386,11.004910358654133,0.5912121831526537
16.0,20.436649690594848,0.5147673829657787,0.012125895890683034,11.00447117134871,0.5912214624941722
17.0,20.440216818874593,0.5149381272783923,0.012122197593774612,11.004031986628574,0.591231378635211
18.0,20.44378383383204,0.5151088889164237,0.012118489238800703,11.003592804602157,0.5912409323736846
19.0,20.447350734537327,0.5152796677661559,0.012114769548952008,11.003153625402886,0.5912515108747732
20.0,20.450917520135906,0.5154504637414637,0.012111044993061551,11.002714449141108,0.5912617463798077
21.0,20.4544841896303,0.515621276745084,0.012107315211356523,11.002275275865664,0.5912716430178996
22.0,20.4580507422577,0.5157921067060551,0.012103583874661955,11.001836105677818,0.5912812319449609
23.0,20.4616171772952,0.5159629535575453,0.012099851335994718,11.001396938667021,0.5912904014806742
24.0,20.465183493961693,0.5161338172271549,0.012096115932257347,11.000957774927917,0.5912993920240723
25.0,20.468749691501806,0.5163046976432252,0.012092378717769834,11.000518614541338,0.5913084480660271
26.0,20.472315769110345,0.5164755947289607,0.012088637608747867,11.000079457597407,0.5913185106196953
27.0,20.47588172604076,0.5166465084167299,0.012084894388659123,10.999640304176598,0.5913290410833912
28.0,20.479447561589073,0.5168174386407712,0.012081150022727534,10.999201154362046,0.5913394782392994
29.0,20.483013275032643,0.5169883853320023,0.01207740417700531,10.998762008237598,0.5913495218151237
30.0,20.486578865725598,0.5171593484278394,0.012073657207613756,10.998322865884367,0.5913592220710749
31.0,20.490144333006846,0.5173303278655786,0.012069909499651355,10.997883727381911,0.5913687771070796
32.0,20.493709676174042,0.5175013235804797,0.012066161128879307,10.997444592809337,0.5913782501210861
33.0,20.49727489451193,0.5176723355077925,0.012062411599274962,10.997005462239985,0.5913879190153112
34.0,20.50083998732863,0.5178433635860114,0.012058661822919384,10.996566335751794,0.5913975347415145
35.0,20.504404953917046,0.5180144077516505,0.012054911052915908,10.996127213428473,0.5914070430159285
36.0,20.50796979356916,0.518185467939657,0.012051159021873299,10.99568809534814,0.5914164412676309
37.0,20.511534505578787,0.5183565440853778,0.01204740583561549,10.995248981584968,0.5914256960196642
38.0,20.515099089255642,0.5185276361265042,0.012043652222449101,10.994809872213532,0.5914348779057034
39.0,20.51866354391162,0.5186987440008486,0.012039898232739796,10.994370767306602,0.5914440090180261
40.0,20.522227868862544,0.5188698676469715,0.012036144151183082,10.993931666939147,0.5914530299690665
41.0,20.525792063421633,0.5190410070029752,0.012032389703177692,10.99349257118727,0.5914619857171303
42.0,20.52935612690636,0.5192121620072768,0.012028635018279053,10.993053480127191,0.5914717419219507
43.0,20.532920058609943,0.519383332597633,0.012024879988693145,10.992614393837275,0.5914814374388727
44.0,20.536483857845262,0.5195545187126395,0.012021124973141487,10.992175312392494,0.5914910370650919
45.0,20.540047523928052,0.5197257202909812,0.012017370037474705,10.99173623586722,0.5915005284028056
46.0,20.543611056173454,0.5198969372713047,0.012013615185817323,10.991297164335808,0.5915099703931395
47.0,20.547174453895952,0.5200681695921937,0.012009860422007523,10.990858097872595,0.591519280645788
48.0,20.550737716409433,0.5202394171921888,0.012006105749630801,10.990419036551899,0.5915284217591273
49.0,20.554300843027153,0.5204106800097758,0.012002351172048715,10.989979980448037,0.5915374460178536
50.0,20.557863833061738,0.5205819579833969,0.01199859669242398,10.989540929635318,0.5915464512685392
51.0,20.56142668582487,0.5207532510513498,0.011994842285059395,10.989101884187951,0.5915553184054075
52.0,20.56498940062542,0.5209245591512476,0.011991087739433661,10.988662844179443,0.5915640813096218
53.0,20.5685519767743,0.5210958822214038,0.011987333302566506,10.988223809684083,0.5915728360459312
54.0,20.572114413579513,0.5212672201999906,0.011983578847651563,10.987784780775867,0.5915815566965462
55.0,20.575676710348453,0.5214385730249324,0.011979824369822518,10.987345757528573,0.5915901512071492
56.0,20.57923886638113,0.5216099406332412,0.011976069402970841,10.986906740014067,0.591598641448454
57.0,20.582800880984703,0.5217813229631248,0.011972314419143664,10.986467728306181,0.5916069878179592
58.0,20.586362753466062,0.5219527199528674,0.011968559439191631,10.986028722478961,0.5916152736693335
59.0,20.58992448313245,0.5221241315404032,0.011964804531748256,10.985589722606681,0.5916235267179586
60.0,20.593486069289057,0.5222955576632319,0.011961049441349238,10.985150728764395,0.5916320964003545
61.0,20.597047511241055,0.5224669982590956,0.011957294319790451,10.984711741027407,0.5916407233670498
62.0,20.600608808292584,0.5226384532655142,0.011953539211770718,10.9842727594697,0.591649819444746
63.0,20.604169959749314,0.5228099226204497,0.011949784260256488,10.98383378416544,0.5916588651168094
64.0,20.60773096491628,0.5229814062618185,0.011946029468363668,10.983394815188808,0.5916678230129934
65.0,20.611291823097815,0.5231529041274801,0.011942274839102611,10.98295585261401,0.5916766248821046
66.0,20.61485253357601,0.5233244161549224,0.011938520369181974,10.982516896510207,0.5916853046726447
67.0,20.618413095635656,0.5234959422816376,0.011934766057584905,10.982077946947395,0.5916938289549
68.0,20.621973508579035,0.5236674824453164,0.011931011910750213,10.981639003999845,0.5917019229528996
69.0,20.625533771707754,0.5238390365836005,0.011927257931326018,10.981200067741844,0.5917094804265086
70.0,20.62909388432277,0.5240106046340746,0.011923504121881106,10.98076113824771,0.591718996633586
71.0,20.632653845724384,0.5241821865342692,0.011919750484906786,10.980322215591785,0.5917291540708969
72.0,20.636213655212234,0.524353782221659,0.011915997022818507,10.979883299848442,0.5917385349646297
73.0,20.63977331208531,0.5245253916336646,0.011912243737957264,10.979444391092079,0.5917470628502035
74.0,20.643332815641937,0.5246970147076545,0.011908490632590836,10.979005489397121,0.5917550529542456
75.0,20.646892165179768,0.5248686513809369,0.011904737708914797,10.978566594838021,0.5917625440494126
76.0,20.650451359995806,0.5250403015907664,0.011900984969053317,10.978127707489264,0.5917697842714641
77.0,20.654010399386372,0.5252119652743453,0.011897232415060023,10.977688827425359,0.5917767968739119
78.0,20.657569282647138,0.5253836423688112,0.011893480048918442,10.977249954720847,0.5917835788716209
79.0,20.661128009073096,0.5255553328112614,0.011889727872542583,10.976811089450294,0.5917902356515504
80.0,20.664686577958587,0.5257270365387258,0.011885975886310197,10.976372231688304,0.5917966287766755
81.0,20.66824498859726,0.5258987534881772,0.011882224084963366,10.975933381509527,0.5918031282281518
82.0,20.671803240282124,0.5260704835965425,0.011878472470367902,10.975494538988647,0.5918095305437249
83.0,20.675361332305503,0.526242226800686,0.011874721044333982,10.975055704200368,0.591816518475433
84.0,20.678919263959052,0.526413983037421,0.011870969808615786,10.974616877219427,0.5918234436363302
85.0,20.68247703453379,0.5265857522435082,0.011867218764911461,10.974178058120586,0.591830163468695
86.0,20.686034643320028,0.5267575343556469,0.011863467914862761,10.97373924697864,0.5918374012485864
87.0,20.689592089607387,0.5269293293104895,0.011859717248327075,10.973300443868371,0.5918449856172542
88.0,20.69314937268456,0.5271011370446259,0.011855966742341632,10.972861648864557,0.5918523790497047
89.0,20.6967064918394,0.5272729574945764,0.011852216426944676,10.972422862042148,0.5918595931995086
90.0,20.700263446359113,0.5274447905968045,0.011848466303516906,10.971984083476125,0.5918665084999631
91.0,20.70382023553025,0.5276166362877258,0.011844716373393712,10.971545313241494,0.5918743017238156
92.0,20.707376858638675,0.5277884945036969,0.011840966637864986,10.971106551413293,0.5918826693696474
93.0,20.7109333149696,0.5279603651810175,0.011837217098175153,10.970667798066582,0.5918912792378114
94.0,20.714489603807568,0.5281322482559382,0.01183346775552278,10.970229053276455,0.5918991449863644
95.0,20.718045724437157,0.5283041436646493,0.01182971859758692,10.969790317118052,0.591907233212864
96.0,20.721601676145408,0.5284760513432823,0.01182596956583866,10.969351589666648,0.5919165425956865
97.0,20.725157458213722,0.5286479712277272,0.011822220723726027,10.968912870996498,0.591925191027619
98.0,20.72871306992183,0.5288199032536541,0.011818472058414627,10.96847416118109,0.5919331953345586
99.0,20.73226851055097,0.5289918473570455,0.011814723591190813,10.96803546029567,0.591942181753606
100.0,20.735823779381715,0.5291638034738262,0.01181097532303605,10.967596768415506,0.5919507168574224
101.0,20.73937887569395,0.5293357715398653,0.011807227254887188,10.967158085615896,0.5919588469890594
102.0,20.742933798766924,0.5295077514909864,0.011803479387636326,10.966719411972168,0.5919676300608304
103.0,20.746488547879203,0.5296797432629488,0.011799731722130705,10.966280747559676,0.5919762773290582
104.0,20.750043122308696,0.5298517467914613,0.011795984259172596,10.965842092453808,0.5919844526255513
105.0,20.753597521332637,0.5300237620121878,0.011792236999518767,10.965403446729978,0.5919922252690036
106.0,20.7571517442276,0.5301957888607293,0.011788489943880183,10.964964810463623,0.591999830795405
107.0,20.760705790269505,0.5303678272726361,0.011784743092921615,10.964526183730221,0.592007553580193
108.0,20.76425965873359,0.5305398771834028,0.011780996447261093,10.96408756660527,0.5920152116944098
109.0,20.767813348892084,0.5307119385290547,0.011777250076790723,10.963648959161146,0.5920228543975702
110.0,20.771366860018308,0.5308840112451194,0.01177350392704594,10.963210361472674,0.592030425651094
111.0,20.77492019138547,0.531056095266933,0.011769757979604757,10.962771773615444,0.5920376539551266
112.0,20.778473342266132,0.5312281905297754,0.01176601223332811,10.962333195665083,0.5920440170678185
113.0,20.782026311932185,0.5314002969688738,0.011762266688640274,10.961894627697246,0.5920503458359513
114.0,20.785579099654868,0.531572414519402,0.011758521345921626,10.961456069787621,0.5920569640650021
115.0,20.78913170470441,0.5317445431164304,0.011754776200026322,10.961017522011462,0.5920634900421057
116.0,20.792684126345407,0.531916682694075,0.011751031176575034,10.960578984437465,0.5920698355606122
117.0,20.79623636384654,0.5320888331871957,0.011747286336063844,10.960140457140584,0.5920762059877344
118.0,20.799788416476453,0.5322609945307638,0.01174354169303398,10.959701940196666,0.5920831364825624
119.0,20.803340283502315,0.5324331666595679,0.011739797213730394,10.959263433680308,0.5920900177901891
120.0,20.806891964189266,0.5326053495080945,0.011736052829708592,10.958824937663993,0.5920972132970918
121.0,20.81044345780221,0.5327775430107876,0.011732308575431604,10.958386452221198,0.5921044003593234
122.0,20.81399476360289,0.532949747101663,0.011728564389452207,10.957947977423458,0.5921116344199658
123.0,20.817545880856414,0.5331219617153794,0.011724820364479032,10.957509513346432,0.5921188154459548
124.0,20.821096808827765,0.5332941867866404,0.01172107651900538,10.957071060066324,0.5921257332821339
125.0,20.824647546781257,0.5334664222500941,0.01171733285394782,10.95663261765937,0.5921324909394319
126.0,20.828198093979932,0.5336386680400742,0.011713589327119312,10.956194186200849,0.5921395831575665
127.0,20.831748449686415,0.5338109240909413,0.011709845949283464,10.95575576576639,0.5921455939065222
128.0,20.835298613163175,0.5339831903372141,0.011706102749284589,10.955317356432358,0.592152999401253
129.0,20.838848583669275,0.5341554667132217,0.011702359702427367,10.954878958273211,0.5921601356596593
130.0,20.84239836046499,0.5343277531532139,0.011698616812792356,10.954440571364588,0.5921669291446271
131.0,20.845947942808166,0.5345000495910497,0.011694873953144893,10.954002195777463,0.5921729578888565
132.0,20.849497329958467,0.5346723559610397,0.011691131253481195,10.95356383158771,0.592181061219595
133.0,20.853046521175326,0.5348446721974817,0.011687388733602217,10.953125478871934,0.5921888118210427
134.0,20.856595515717533,0.5350169982346382,0.011683646394831656,10.952687137706782,0.5921963234243873
135.0,20.86014431284719,0.5351893340068612,0.011679904221361724,10.952248808168218,0.5922037230180197
136.0,20.86369291182883,0.5353616794485264,0.011676162193839724,10.951810490331573,0.5922108658105142
137.0,20.867241311918917,0.5355340344936398,0.011672420336507042,10.951372184273422,0.5922177320967387
138.0,20.87078951237252,0.535706399076206,0.011668678640048454,10.950933890069699,0.5922245209750074
139.0,20.874337512445,0.5358787731302406,0.01166493712518357,10.950495607797079,0.5922316538042883
140.0,20.87788531139128,0.5360511565897191,0.011661195797715497,10.950057337532463,0.5922387637189368
141.0,20.88143290846567,0.5362235493885713,0.01165745465635613,10.949619079352795,0.5922462189761467
142.0,20.88498030292183,0.5363959514606851,0.011653713702478816,10.949180833335067,0.5922545166962206
143.0,20.888527494012795,0.5365683627398979,0.011649972937432841,10.948742599556306,0.5922617482218474
144.0,20.892074480990015,0.5367407831596731,0.011646232346768379,10.948304378091786,0.5922687789503279
145.0,20.895621263104914,0.5369132126536483,0.011642491941292724,10.947866169017965,0.5922758258731547
146.0,20.899167839608616,0.537085651155521,0.011638751727965562,10.947427972412004,0.5922826251897998
147.0,20.902714209751615,0.5372580985989533,0.01163501170806157,10.946989788351107,0.5922891958900985
148.0,20.906260372784327,0.5374305549175663,0.011631271880551845,10.946551616912512,0.5922955493961137
149.0,20.9098063279567,0.5376030200449454,0.01162753223946226,10.946113458173519,0.5923023949518723
150.0,20.913352074518038,0.5377754939146319,0.011623792785944932,10.945675312211469,0.5923101069342976
151.0,20.91689761171699,0.5379479764601086,0.011620053521449182,10.94523717910375,0.5923181176284956
152.0,20.920442938801592,0.5381204676148297,0.011616314447408134,10.944799058927787,0.5923261977640647
153.0,20.923988055018953,0.5382929673121495,0.011612575534787907,10.944360951760338,0.592333653847609
154.0,20.92753295961574,0.538465475485411,0.011608836803326607,10.943922857678633,0.5923408193334646
155.0,20.93107765183796,0.5386379920679089,0.011605098253988182,10.943484776760128,0.5923488549720753
156.0,20.934622130930812,0.5388105169928588,0.011601359864578232,10.943046709082004,0.5923565094967896
157.0,20.93816639613875,0.5389830501934852,0.011597621639143834,10.94260865472122,0.5923643398501015
158.0,20.94171044670576,0.5391555916030449,0.011593883581305222,10.942170613754774,0.5923721734631157
159.0,20.94525428187545,0.5393281411546913,0.011590145725519124,10.941732586260457,0.5923800980875534
160.0,20.94879790089074,0.5395006987815246,0.011586408070713695,10.94129457231602,0.5923857045488216
161.0,20.952341302993457,0.5396732644165215,0.011582670588907702,10.940856571998262,0.5923936004931901
162.0,20.95588448742528,0.5398458379927079,0.011578933313678557,10.940418585385128,0.5924015642541333
163.0,20.959427453427224,0.5400184194430632,0.011575196246411304,10.939980612554601,0.5924084782995603
164.0,20.962970200239663,0.540191008700531,0.011571459386938774,10.939542653584695,0.5924139574071586
165.0,20.96651272710215,0.5403636056979789,0.011567722715972667,10.939104708553197,0.5924200892010943
166.0,20.970055033253768,0.5405362103682559,0.011563986257083068,10.93866677753823,0.5924263211337424
167.0,20.973597117932904,0.5407088226441771,0.011560250011551608,10.938228860617972,0.5924333437130826
168.0,20.977138980376754,0.5408814424585079,0.011556513960087177,10.937790957870002,0.5924402515540856
169.0,20.980680619821804,0.5410540697439562,0.011552778097770148,10.937353069372273,0.5924468680416283
170.0,20.98422203550438,0.5412267044331932,0.011549042446987097,10.93691519520306,0.5924530763985459
171.0,20.98776322666029,0.5413993464588579,0.01154530701436702,10.936477335440726,0.592458995192704
172.0,20.991304192524666,0.541571995753542,0.011541571801083159,10.936039490163688,0.5924657328842643
173.0,20.99484493233199,0.5417446522497898,0.011537836808280135,10.935601659450402,0.5924713607730895
174.0,20.99838544531606,0.5419173158801036,0.011534102037074145,10.935163843379378,0.5924787566965818
175.0,21.001925730709733,0.5420899865768826,0.011530367482087488,10.934726042028931,0.5924850351033158
176.0,21.005465787741674,0.5422626642717073,0.011526633066593676,10.934288255474607,0.5924909219123214
177.0,21.00900561564323,0.5424353488968262,0.011522898860720571,10.933850483794616,0.5924969249318179
178.0,21.012545213645474,0.542608040384545,0.011519164876525798,10.933412727067623,0.5925028178390424
179.0,21.016084580978827,0.5427807386671422,0.011515431114979635,10.932974985372338,0.5925087373599612
180.0,21.019623716873056,0.5429534436768407,0.01151169757703047,10.932537258787523,0.5925142680366885
181.0,21.023162620557233,0.5431261553458268,0.011507964263605671,10.932099547391987,0.5925194947908524
182.0,21.026701291259794,0.5432988736062417,0.011504231175612532,10.931661851264591,0.5925261581726448
183.0,21.0302397282085,0.5434715983901871,0.011500498313939015,10.931224170484246,0.5925345467554728
184.0,21.03377793063043,0.5436443296297159,0.011496765679454232,10.930786505129905,0.592542745832643
185.0,21.03731589775179,0.543817067256835,0.011493033254515329,10.930348855280304,0.5925503484865722
186.0,21.04085362879831,0.5439898112035136,0.011489301056215569,10.929911221014462,0.5925575847479577
187.0,21.044391122995098,0.5441625614016817,0.011485569088027012,10.929473602411484,0.5925642527632581
188.0,21.04792837956657,0.5443353177832263,0.01148183735075257,10.929035999550527,0.5925709880365752
189.0,21.051465397736493,0.5445080802799898,0.01147810584517705,10.928598412510791,0.5925781870040872
190.0,21.055002176727946,0.5446808488237757,0.011474374572066941,10.928160841371527,0.5925848621606992
191.0,21.05853871576332,0.5448536233463347,0.011470643530829371,10.927723286211997,0.592591449459878
192.0,21.062075014064053,0.5450264037793069,0.0114669127024246,10.92728574711108,0.5925995170331533
193.0,21.065611070851233,0.5451991900543675,0.011463182099114856,10.926848224148182,0.5926066441090706
