k,PSNR,SSIM,mse,Log-Gradient,Angle
0.0,20.380142254859837,0.5120711072110132,0.0,11.011433616370967,0.582985164723739
1.0,20.383169969602783,0.512211677459243,0.010160558679886869,11.011054791295779,0.5909324757034015
2.0,20.38670521498954,0.5123795833948456,0.011994319863541079,11.01061924448599,0.5910486650097522
3.0,20.390268288863496,0.5125495586132708,0.012133606783497062,11.010180653011012,0.5910965150951325
4.0,20.39383458183221,0.5127198730857255,0.01215371969680308,11.009741702394267,0.5911088783161312
5.0,20.397401384143198,0.5128902860533734,0.012156617474971336,11.009302687694346,0.5911160534815074
6.0,20.400968134780243,0.5130607394613157,0.01215504984725425,11.008863671217359,0.591127791319343
7.0,20.404534669959542,0.5132312146472463,0.012151955019906275,11.008424671072408,0.5911416087856283
8.0,20.40810092792325,0.5134017041891514,0.012148219016596464,11.007985694314057,0.5911566113406251
9.0,20.411666883614004,0.5135722049619605,0.012144192440034703,11.007546743906778,0.5911667740316564
10.0,20.415232524381132,0.5137427153430957,0.01214002593206022,11.007107821204412,0.5911744238866156
11.0,20.41879784207839,0.5139132343106151,0.01213575633047548,11.006668927095445,0.5911797031054878
12.0,20.422362831944625,0.5140837612552894,0.012131426371125435,11.00623006220372,0.5911868261203657
13.0,20.425927490166803,0.5142542956957422,0.012127045624128068,11.005791227004563,0.5911954976182879
14.0,20.429491814306534,0.5144248373178759,0.012122636057423851,11.005352421799962,0.5912033124447911
15.0,20.433055802170045,0.5145953858148161,0.012118199165999769,11.004913646827072,0.5912121199820081
16.0,20.436619452191508,0.5147659409863133,0.012113744791038597,11.004474902285299,0.5912213943426584
17.0,20.44018276320013,0.5149365027062093,0.012109281559911996,11.004036188309179,0.591231300044396
18.0,20.443745734006583,0.5151070708390976,0.01210480879062883,11.003597505012888,0.5912408495637389
19.0,20.447308363664725,0.5152776452661275,0.012100325206292903,11.003158852535561,0.591251420069527
20.0,20.45087065130406,0.5154482258960789,0.01209583728167139,11.002720230993209,0.5912616439245102
21.0,20.454432595911427,0.5156188126266014,0.012091344653805859,11.00228164044032,0.591271523650373
22.0,20.45799419670864,0.5157894053816934,0.012086850997443716,11.001843080983768,0.5912810988559334
23.0,20.461555452957647,0.5159600040894848,0.012082356664142088,11.001404552718594,0.5912902546850037
24.0,20.465116363862492,0.51613060867257,0.012077859990805694,11.000966055745003,0.5912992293716498
25.0,20.468676928653238,0.5163012190543035,0.012073362031970852,11.000527590149359,0.5913082766952239
26.0,20.472237146510427,0.5164718351529446,0.01206886070391244,11.000089156027279,0.5913183314136482
27.0,20.475797016673503,0.5166424568959239,0.012064357790298021,10.999650753464719,0.5913288467462235
28.0,20.479356538424792,0.5168130842125739,0.012059854258084951,10.999212382550255,0.5913392644895643
29.0,20.482915711028223,0.5169837170289292,0.012055349772965978,10.99877404337315,0.5913492874302472
30.0,20.486474533824858,0.5171543552775502,0.012050844689951119,10.998335736019907,0.5913589701749559
31.0,20.490033006140646,0.5173249988908913,0.01204633939670711,10.99789746057545,0.5913685086053556
32.0,20.49359112726063,0.5174956477994096,0.012041833967802128,10.997459217124213,0.5913779612981337
33.0,20.497148896457272,0.5176663019335682,0.012037327907801664,10.997021005744841,0.5913876225107888
34.0,20.500706313026626,0.5178369612270944,0.012032822128286916,10.996582826520564,0.5913972192755425
35.0,20.50426337624982,0.5180076256117695,0.012028315880655515,10.996144679540338,0.5914067075846833
36.0,20.507820085407378,0.5181782950178122,0.012023808899545898,10.995706564887497,0.5914160891422332
37.0,20.511376439781927,0.5183489693758973,0.01201930129086476,10.995268482641407,0.5914253224666713
38.0,20.514932438672307,0.5185196486190474,0.01201479378477246,10.9948304328818,0.5914344744517618
39.0,20.518488081379772,0.5186903326804293,0.01201028642948788,10.994392415686578,0.5914435841932458
40.0,20.5220433672098,0.5188610214939929,0.012005779510224652,10.99395443113583,0.591452576502804
41.0,20.525598295465578,0.5190317149932436,0.012001272752330995,10.993516479310742,0.5914615283318881
42.0,20.529152865454805,0.5192024131120335,0.0119967662885821,10.99307856029258,0.5914712666169489
43.0,20.532707076460945,0.5193731157835694,0.011992260004455992,10.992640674164765,0.5914809319934041
44.0,20.536260927787925,0.5195438229419403,0.011987754267703061,10.992202821007233,0.591490506566506
45.0,20.539814418742566,0.519714534521333,0.011983249140181994,10.991765000899317,0.5914999696152562
46.0,20.54336754863136,0.5198852504559244,0.011978744626099979,10.991327213920313,0.5915093859798
47.0,20.54692031676045,0.5200559706798588,0.011974240729377484,10.99088946014946,0.5915186733368438
48.0,20.550472722435668,0.5202266951272497,0.011969737453681989,10.99045173966597,0.5915277922363839
49.0,20.5540247649625,0.5203974237321941,0.011965234802456795,10.990014052549002,0.5915367817333089
50.0,20.55757644364607,0.5205681564287611,0.0119607327789461,10.989576398877691,0.5915457702019058
51.0,20.561127757790864,0.5207388931508966,0.01195623135572705,10.989138778731041,0.5915546113086237
52.0,20.56467870669885,0.5209096338318976,0.01195173032538471,10.988701192187323,0.5915633531212489
53.0,20.56822928967432,0.5210803784057831,0.011947229933805002,10.988263639325574,0.5915720704193146
54.0,20.571779506018938,0.5212511268064505,0.011942730053718103,10.987826120224492,0.5915807643186951
55.0,20.575329355034032,0.5214218789675779,0.011938230678679173,10.987388634962539,0.5915893491053402
56.0,20.578878836013885,0.5215926348219543,0.011933731344521178,10.986951183616235,0.5915978063753289
57.0,20.582427948260168,0.5217633943035981,0.01192923252293702,10.986513766264036,0.5916061406159584
58.0,20.585976691074638,0.5219341573466189,0.011924734236940748,10.986076382984585,0.5916143936670574
59.0,20.58952506375958,0.5221049238847802,0.011920236542270245,10.985639033856764,0.5916226026087787
60.0,20.593073065615677,0.5222756938514878,0.011915739201785201,10.985201718960141,0.5916311155526135
61.0,20.596620695943738,0.5224464671803665,0.011911242359060444,10.984764438374544,0.5916396848699393
62.0,20.600167954043958,0.5226172438048805,0.011906746065183679,10.98432719217841,0.5916487111276464
63.0,20.603714839218313,0.5227880236589516,0.011902250458653544,10.983889980450357,0.5916577266092395
64.0,20.607261350768425,0.5229588066764674,0.011897755542667567,10.983452803268985,0.5916666578861081
65.0,20.61080748799551,0.5231295927912947,0.011893261320317898,10.983015660712892,0.5916754510672223
66.0,20.61435325018007,0.5233003819369716,0.011888767788423824,10.982578552855898,0.5916840960891644
67.0,20.61789863660323,0.5234711740470265,0.011884274945458182,10.982141479772055,0.5916926264338729
68.0,20.621443646565,0.5236419690552311,0.011879782798497404,10.981704441539932,0.5917007532891885
69.0,20.62498827936508,0.5238127668953331,0.011875291350271978,10.981267438238097,0.5917083665595665
70.0,20.62853253430278,0.5239835675010496,0.011870800603433105,10.980830469945113,0.5917173714547475
71.0,20.63207641067708,0.5241543708060706,0.011866310560554543,10.980393536739543,0.5917275290870062
72.0,20.635619907786573,0.5243251767440463,0.011861821224134166,10.979956638699944,0.5917370318885357
73.0,20.639163024929502,0.5244959852486151,0.011857332596595542,10.979519775904873,0.5917456217297092
74.0,20.64270576140375,0.5246667962533709,0.011852844680288889,10.979082948432886,0.5917536599996132
75.0,20.646248116506833,0.5248376096918881,0.011848357477492397,10.978646156362537,0.5917611826992425
76.0,20.649790089535905,0.5250084254977055,0.011843870990412852,10.978209399772377,0.5917684334374836
77.0,20.653331679787755,0.5251792436043318,0.011839385221186499,10.977772678740957,0.5917754496490572
78.0,20.656872886558816,0.525350063945247,0.011834900171879607,10.977335993346827,0.5917822247872871
79.0,20.660413709145125,0.5255208864539104,0.011830415844488944,10.97689934366854,0.591788881659248
80.0,20.663954146842393,0.5256917110637368,0.011825932240638097,10.976462729784643,0.5917952797318016
81.0,20.667494198945935,0.5258625377081166,0.011821449353996592,10.976026151773711,0.5918017260423638
82.0,20.67103386475072,0.5260333663204174,0.011816967186511658,10.975589609714314,0.5918081276098704
83.0,20.674573143551346,0.5262041968339682,0.011812485740074765,10.975153103685022,0.5918149180010641
84.0,20.67811203464204,0.5263750291820767,0.011808005016521675,10.974716633764405,0.5918218429889248
85.0,20.681650537316692,0.5265458632980157,0.011803525017631869,10.974280200031027,0.5918285767220867
86.0,20.6851886508688,0.5267166991150375,0.011799045745128547,10.973843802563454,0.5918355273577635
87.0,20.688726374591436,0.5268875365663613,0.01179456717695409,10.973407441440175,0.5918430704724926
88.0,20.692263707777194,0.5270583755851775,0.011790089315703425,10.9729711167397,0.5918505111730143
89.0,20.695800649718052,0.5272292161046287,0.011785612178067444,10.972534828540663,0.5918577240079405
90.0,20.699337199705607,0.5274000580578325,0.011781135765507357,10.972098576921695,0.5918646473672692
91.0,20.702873357031123,0.5275709013778749,0.011776660079439037,10.971662361961426,0.5918720249299457
92.0,20.706409120985487,0.5277417459978101,0.011772185121232882,10.971226183738482,0.591880312691878
93.0,20.709944490859247,0.5279125918506788,0.011767710892213864,10.970790042331489,0.5918887351367059
94.0,20.71347946594257,0.5280834388694741,0.011763237393661157,10.970353937819066,0.591897361671833
95.0,20.717014045526263,0.5282542869871725,0.011758764607599408,10.969917870279868,0.5919042976046945
96.0,20.720548228903365,0.5284251361367113,0.011754292486707313,10.969481839792627,0.5919137947419392
97.0,20.724082015362217,0.5285959862508811,0.01174982109303902,10.96904584643536,0.5919226936208472
98.0,20.727615404189066,0.5287668372621549,0.011745350405531797,10.968609890284652,0.5919307021397314
99.0,20.73114839467232,0.5289376891033961,0.011740880449957067,10.968173971419123,0.5919391419190942
100.0,20.734680986100038,0.5291085417074425,0.011736411227378637,10.96773808991739,0.5919481589058513
101.0,20.738213177759945,0.5292793950071112,0.011731942738815558,10.967302245858072,0.5919561273799668
102.0,20.74174496893939,0.5294502489351846,0.01172747498524238,10.966866439319782,0.5919646263593155
103.0,20.745276358925373,0.5296211034244168,0.011723007967589018,10.966430670381133,0.5919733145656885
104.0,20.748807347004565,0.5297919584075458,0.011718541686740414,10.965994939120733,0.5919815625237553
105.0,20.75233793246325,0.5299628138172744,0.011714076143536319,10.965559245617197,0.5919894249524588
106.0,20.755868114587386,0.5301336695862751,0.011709611338770923,10.965123589949126,0.5919969946434235
107.0,20.75939789266258,0.5303045256472046,0.011705147273192516,10.964687972195128,0.592004612390156
108.0,20.76292726597407,0.5304753819326894,0.011700683947502873,10.964252392433805,0.5920122619687235
109.0,20.766456233804842,0.5306462383757976,0.01169622141900899,10.96381685074117,0.5920197717151868
110.0,20.769984795438454,0.5308170949093434,0.01169175965807195,10.963381347194536,0.5920273260490627
111.0,20.77351295015905,0.5309879514658729,0.011687298635694954,10.9629458818725,0.5920347536761076
112.0,20.77704069725047,0.5311588079779029,0.011682838349410935,10.962510454853664,0.5920414222354901
113.0,20.780568035996193,0.5313296643779232,0.011678378799728831,10.962075066216636,0.5920474995014309
114.0,20.784094965679362,0.5315005205983966,0.011673919987113908,10.961639716040018,0.5920540352122913
115.0,20.787621485582775,0.531671376571762,0.011669461911987644,10.961204404402414,0.5920605770239665
116.0,20.791147594984082,0.5318422322295996,0.011665004500873358,10.960769131375997,0.5920669391622807
117.0,20.79467329316401,0.5320130875039709,0.011660547795218513,10.960333897037486,0.5920731627162306
118.0,20.798198579404406,0.5321839423272592,0.011656091822494967,10.959898701465521,0.5920798096404283
119.0,20.801723452986586,0.5323547966317753,0.011651636575803528,10.959463544738467,0.5920866649539643
120.0,20.80524791318888,0.5325256503493631,0.01164718193867726,10.959028426930516,0.5920936412716546
121.0,20.808771959291192,0.5326965034121117,0.011642727990125794,10.958593348118919,0.5921008074591142
122.0,20.812295590569487,0.5328673557514795,0.011638274636893134,10.958158308377358,0.592107926858701
123.0,20.815818806303096,0.5330382072995659,0.011633821965021714,10.957723307783596,0.592115137121958
124.0,20.819341605772088,0.5332090579886356,0.011629370008620337,10.957288346416439,0.5921221327374483
125.0,20.822863988256245,0.5333799077509268,0.011624918768686265,10.9568534243547,0.5921289269019742
126.0,20.82638595303463,0.5335507565185127,0.011620468223066605,10.956418541676635,0.5921360366432539
127.0,20.82990749938567,0.5337216042232868,0.011616018344686462,10.95598369845996,0.5921415674711589
128.0,20.83342862658823,0.5338924507974309,0.011611569180425354,10.955548894783508,0.5921489507241225
129.0,20.83694933391891,0.5340632961730359,0.011607120713700025,10.955114130724743,0.5921561487273942
130.0,20.84046962065438,0.5342341402820598,0.011602672939943022,10.954679406361402,0.5921630865589379
131.0,20.843989486070534,0.5344049830562151,0.011598225764895394,10.95424472176818,0.5921695006943911
132.0,20.84750892944397,0.534575824427456,0.011593779245592226,10.953810077021764,0.5921760703556985
133.0,20.851027950052142,0.5347466643278986,0.011589333442760747,10.95337547220108,0.5921841137153859
134.0,20.85454654717221,0.5349175026896343,0.011584888357805996,10.952940907385058,0.5921916493142931
135.0,20.858064720081792,0.5350883394447754,0.011580443988721392,10.952506382652496,0.5921990712922416
136.0,20.86158246806761,0.5352591745257167,0.011576000291325763,10.952071898080423,0.592206303734273
137.0,20.865099790405417,0.5354300078643712,0.01157155729821205,10.951637453747567,0.5922132576410092
138.0,20.868616686370302,0.5356008393927109,0.011567115010720894,10.9512030497323,0.59221999336704
139.0,20.87213315523727,0.535771669042702,0.011562673434151419,10.950768686113149,0.5922267666616349
140.0,20.875649196281593,0.535942496746331,0.011558232582835322,10.950334362969109,0.5922340007049587
141.0,20.87916480877823,0.5361133224355613,0.011553792456433308,10.949900080379189,0.5922405157863947
142.0,20.882679992001854,0.5362841460423363,0.011549353054919801,10.949465838422405,0.5922489559843424
143.0,20.88619474522679,0.536454967498587,0.011544914379727206,10.949031637177788,0.5922567016810653
144.0,20.889709067726546,0.5366257867360203,0.011540476422597331,10.948597476723291,0.5922637447584277
145.0,20.893222958774146,0.5367966036862882,0.011536039182008873,10.948163357136606,0.5922706642686254
146.0,20.896736417643048,0.536967418281264,0.011531602671311335,10.947729278496785,0.5922774315047553
147.0,20.90024944360639,0.5371382304528078,0.011527166891864886,10.947295240882907,0.5922838708313358
148.0,20.90376203593715,0.5373090401327626,0.011522731844499895,10.94686124437405,0.5922902970162418
149.0,20.907274193908574,0.5374798472529684,0.01151829752622539,10.946427289049304,0.5922967594370943
150.0,20.91078591679362,0.5376506517452492,0.011513863933526306,10.945993374987784,0.5923038479753607
151.0,20.91429720386493,0.537821453541404,0.01150943106792707,10.945559502268614,0.5923116791878416
152.0,20.917808054394847,0.5379922525732265,0.011504998930936764,10.945125670970928,0.5923195899065475
153.0,20.921318467655347,0.5381630487724767,0.011500567516549423,10.944691881173695,0.5923270847976474
154.0,20.924828442917875,0.5383338420708553,0.011496136798565757,10.944258132955252,0.5923345523182004
155.0,20.92833797945389,0.5385046324001102,0.011491706814385242,10.943824426394787,0.5923425121189846
156.0,20.931847076534304,0.5386754196919088,0.011487277533413104,10.943390761571196,0.5923500319141923
157.0,20.935355733429574,0.5388462038779314,0.011482848951068577,10.942957138563019,0.5923574679935285
158.0,20.938863949410003,0.5390169848899178,0.011478421076837605,10.942523557448826,0.5923652136924121
159.0,20.942371723745744,0.5391877626595863,0.011473993927361809,10.942090018307525,0.5923729425195675
160.0,20.9458790557068,0.5393585371186155,0.011469567520163117,10.941656521218395,0.59238076127093
161.0,20.949385944562536,0.5395293081986096,0.011465141836370783,10.941223066260044,0.5923864267153839
162.0,20.952892389582107,0.5397000758311737,0.011460716883870323,10.94078965351131,0.5923942588057399
163.0,20.9563983900346,0.5398708399479477,0.01145629267835969,10.940356283051523,0.5924023194062301
164.0,20.959903945188756,0.5400416004805485,0.011451869221276983,10.939922954960027,0.5924086860874188
165.0,20.963409054312937,0.5402123573605656,0.0114474464980538,10.939489669315968,0.5924142762101186
166.0,20.96691371667521,0.5403831105195859,0.011443024518575552,10.939056426198611,0.5924205167697919
167.0,20.970417931543412,0.5405538598891798,0.011438603291819173,10.938623225687346,0.5924267578189061
168.0,20.973921698184803,0.5407246054009088,0.01143418280969018,10.938190067861276,0.5924334598050832
169.0,20.977425015865947,0.5408953469863226,0.011429763057604141,10.937756952799257,0.5924402066329784
170.0,20.98092788385334,0.5410660845769364,0.011425344043887805,10.937323880580566,0.5924466404256981
171.0,20.984430301413582,0.5412368181042738,0.011420925788037342,10.936890851284643,0.5924526280971126
172.0,20.98793226781295,0.5414075474998276,0.011416508291310313,10.936457864990945,0.5924587374592443
173.0,20.991433782317408,0.5415782726950926,0.011412091554935527,10.93602492177894,0.5924661797558716
174.0,20.994934844192592,0.5417489936215426,0.0114076755801135,10.935592021728107,0.5924717794197335
175.0,20.998435452703838,0.5419197102106268,0.011403260368016395,10.935159164917946,0.5924786685613762
176.0,21.00193560711427,0.5420904223933963,0.011398845877518377,10.934726351426464,0.5924845026904075
177.0,21.005435306686028,0.5422611301006889,0.011394432089456908,10.934293581331039,0.5924900655541935
178.0,21.008934550683378,0.5424318332638869,0.011390019062231012,10.933860854711133,0.5924958106869226
179.0,21.012433338370315,0.5426025318143842,0.01138560679803026,10.933428171646263,0.5925015421880204
180.0,21.01593166901052,0.542773225683549,0.011381195297889373,10.932995532215962,0.5925074297939359
181.0,21.019429541867346,0.5429439148027382,0.011376784562821667,10.93256293649978,0.592513160426582
182.0,21.022926956203865,0.5431145991032932,0.011372374593819653,10.932130384577281,0.5925196877186393
183.0,21.026423911282794,0.5432852785165516,0.011367965391855916,10.931697876528045,0.5925268052054752
184.0,21.029920406366557,0.5434559529738219,0.011363556957883748,10.931265412431667,0.5925346996638585
185.0,21.033416440717208,0.5436266224064124,0.011359149289561127,10.930832992367707,0.5925424832451464
186.0,21.03691201359634,0.5437972867456028,0.0113547423734702,10.930400616415529,0.5925495839231018
187.0,21.040407124265418,0.5439679459226658,0.011350336228542023,10.929968284654775,0.592556140059647
188.0,21.043901771985617,0.5441385998688731,0.011345930855661815,10.9295359971651,0.5925626923291685
189.0,21.04739595601778,0.5443092485154698,0.011341526255696437,10.929103754026174,0.592568818380851
190.0,21.050889675622443,0.544479891793696,0.011337122429494082,10.92867155531768,0.592576249362494
191.0,21.054382930059813,0.5446505296347719,0.011332719377884173,10.928239401119313,0.5925830120062273
192.0,21.057875718589656,0.5448211619698838,0.011328317094421923,10.92780729151059,0.5925885381883347
193.0,21.06136804047138,0.5449917887301751,0.011323915574049584,10.927375226570927,0.5925961811533947
