k,PSNR,SSIM,mse,Log-Gradient,Angle
0.0,20.380142254859837,0.5120711072110132,0.0,11.011433616370967,0.582985164723739
1.0,20.383169733739365,0.5122116665079626,0.010159767235839489,11.011054820808056,0.5909324750363282
2.0,20.386704467845917,0.5123795484075281,0.011992605247100642,11.010619337447237,0.591048664804864
3.0,20.390266752829945,0.5125494863387915,0.012130952003142768,11.010180843602146,0.5910965115536791
4.0,20.39383197903834,0.5127197502422746,0.01215012087527355,11.009742024829194,0.5911088721199167
5.0,20.39739743666816,0.5128900993472196,0.012152073983646263,11.009303176196987,0.5911160387770698
6.0,20.400962564696428,0.5130604755913528,0.012149561905128814,11.008864360016746,0.5911277760474097
7.0,20.404527199345672,0.513230860306471,0.012145523145525304,11.008425594401219,0.5911415981725001
8.0,20.408091278869364,0.5134012460652665,0.012140843848928808,11.007986886408027,0.5911565921003419
9.0,20.411654778223863,0.5135716297376519,0.012135874680192353,11.00754823900441,0.5911667465018592
10.0,20.41521768477341,0.5137420096961839,0.012130766309080637,11.007109653546841,0.591174380009719
11.0,20.418779990387605,0.5139123849141526,0.01212555558333116,11.006671130926334,0.5911796524412747
12.0,20.422341690321918,0.5140827547776524,0.012120285252504246,11.006232671769157,0.5911867717894852
13.0,20.42590278078039,0.5142531188006756,0.012114964888380871,11.005794276553022,0.5911954357565355
14.0,20.42946325934234,0.5144234766645636,0.012109616469387541,11.005355945582215,0.5912032387220553
15.0,20.433023123832083,0.5145938280579083,0.012104241487126313,11.004917679096154,0.5912120424855759
16.0,20.43658237270239,0.5147641727759974,0.01209884979106557,11.004479477296444,0.5912213107278451
17.0,20.440141004801408,0.5149345106882295,0.012093450009974572,11.00404134031978,0.5912312036221187
18.0,20.44369901895915,0.5151048416547929,0.012088041460406644,11.003603268282475,0.5912407479993164
19.0,20.447256414249118,0.5152751655524612,0.012082622865206744,11.003165261325751,0.5912513087671438
20.0,20.450813189820988,0.5154454822856867,0.012077200706275189,11.002727319567647,0.5912615182244776
21.0,20.45436934468202,0.5156157917478303,0.012071774616589448,11.002289443064656,0.5912713772663053
22.0,20.457924878074913,0.5157860938586128,0.01206634827556157,11.001851631925602,0.5912809356034932
23.0,20.461479789282762,0.5159563885419334,0.012060922032803845,11.001413886247455,0.591290074644134
24.0,20.46503407753116,0.5161266757161797,0.01205549422507059,11.00097620613231,0.5912990298707957
25.0,20.46858774207207,0.5162969553005327,0.012050065907009874,11.000538591668366,0.5913080664916638
26.0,20.472140782108323,0.516467227209119,0.012044634994815642,11.000101042953043,0.5913181116468956
27.0,20.47569319690202,0.5166374913652692,0.012039203272249263,10.999663560074069,0.5913286084131787
28.0,20.47924498575849,0.5168077476942314,0.012033771708242559,10.999226143121742,0.5913390022791306
29.0,20.482796147965026,0.5169779961180117,0.012028339967893795,10.998788792187014,0.5913489999271959
30.0,20.48634668288653,0.5171482365651654,0.012022908404694874,10.998351507358041,0.5913586612355791
31.0,20.48989658987292,0.5173184689641604,0.012017477409313422,10.997914288721358,0.5913681792759092
32.0,20.49344586823367,0.5174886932415171,0.012012047054697913,10.997477136362972,0.5913776077732951
33.0,20.49699451726607,0.5176589093237833,0.012006616845982388,10.997040050363054,0.5913872589089928
34.0,20.500542536291306,0.5178291171408113,0.01200118769398061,10.996603030806348,0.591396832406822
35.0,20.504089924616,0.5179993166205312,0.011995758847840925,10.99616607778327,0.5914062966945777
36.0,20.507636681546558,0.5181695076893441,0.011990330044539454,10.995729191378567,0.5914156575581333
37.0,20.511182806391876,0.5183396902741416,0.011984901389931501,10.995292371672981,0.5914248644250514
38.0,20.514728298477408,0.5185098643041984,0.011979473616300834,10.994855618747584,0.5914339796950883
39.0,20.518273157131368,0.5186800297089634,0.01197404676907322,10.994418932681572,0.5914430633233693
40.0,20.521817381686553,0.5188501864186983,0.01196862113394488,10.993982313556312,0.5914520208017545
41.0,20.525360971473873,0.5190203343632602,0.01196319643605183,10.993545761454225,0.5914609733950086
42.0,20.528903925829063,0.5191904734728674,0.011957772811963766,10.993109276457751,0.5914706839959255
43.0,20.53244624406371,0.5193606036771355,0.011952350138742775,10.992672858651515,0.5914803119254893
44.0,20.53598792551079,0.5195307249066041,0.011946928795073057,10.992236508116507,0.5914898557739112
45.0,20.53952896950627,0.5197008370919385,0.011941508837755606,10.991800224933142,0.5914992842571911
46.0,20.543069375386146,0.5198709401638185,0.011936090270943967,10.991364009181739,0.5915086687721254
47.0,20.546609142486435,0.5200410340529293,0.011930673098504515,10.990927860942541,0.5915179278507255
48.0,20.550148270143186,0.5202111186899593,0.011925257324050118,10.990491780295708,0.5915270220092189
49.0,20.553686757692486,0.5203811940056049,0.01191984295096902,10.990055767321321,0.5915359760533143
50.0,20.557224604470427,0.5205512599305728,0.011914429982449999,10.989619822099396,0.5915449353865835
51.0,20.56076180981279,0.5207213163954708,0.0119090183887908,10.989183944709762,0.5915537428697729
52.0,20.564298373053248,0.5208913633303043,0.011903607966243998,10.988748135231507,0.5915624602503313
53.0,20.567834293528165,0.5210614006658284,0.01189819895914367,10.988312393744426,0.5915711299420547
54.0,20.57136957057161,0.5212314283327003,0.01189279123949193,10.987876720327945,0.5915797941137882
55.0,20.57490420351766,0.5214014462613988,0.011887384798744835,10.987441115061205,0.591588363621465
56.0,20.57843819169378,0.5215714543815436,0.01188197917497499,10.987005578021375,0.591596785227568
57.0,20.58197153443516,0.5217414526240217,0.01187657483927937,10.986570109287523,0.5916051054041956
58.0,20.585504231077458,0.521911440919835,0.01187117181717615,10.986134708938868,0.5916133175262049
59.0,20.589036280957146,0.5220814191996624,0.011865770144331786,10.985699377054878,0.591621498387261
60.0,20.592567683409534,0.5222513873938728,0.011860369613161689,10.985264113715594,0.5916299251579134
61.0,20.596098437770493,0.5224213454330952,0.011854970359723785,10.98482891900126,0.5916384461727503
62.0,20.599628543375587,0.5225912932478253,0.011849572431999513,10.984393792990732,0.5916473568352226
63.0,20.603157999562526,0.5227612307690473,0.01184417596776988,10.983958735762997,0.5916563287884854
64.0,20.606686805669018,0.5229311579277404,0.011838780970175815,10.983523747396998,0.5916652252378626
65.0,20.610214961032774,0.5231010746548964,0.011833387442252605,10.983088827971622,0.591674007381525
66.0,20.613742464972663,0.5232709808812367,0.011827995380851481,10.98265397756131,0.5916826084455195
67.0,20.617269316805572,0.5234408765374584,0.011822604783555775,10.982219196239985,0.591691140252971
68.0,20.620795515869112,0.5236107615545521,0.011817215658120042,10.9817844840864,0.5916993070029363
69.0,20.624321061500922,0.5237806358635345,0.01181182800721846,10.98134984117926,0.5917069835936184
70.0,20.62784595303866,0.5239504993954067,0.011806441833445772,10.980915267597231,0.5917153911918992
71.0,20.631370189819997,0.5241203520811776,0.011801057139319183,10.980480763418935,0.5917255172709992
72.0,20.63489377118261,0.5242901938518655,0.011795673927280073,10.980046328722956,0.5917351570406869
73.0,20.63841669646419,0.5244600246384877,0.011790292199695221,10.979611963587834,0.5917438370720985
74.0,20.641938965002442,0.5246298443720652,0.011784911958858264,10.979177668092065,0.591751936714278
75.0,20.645460576135072,0.5247996529836273,0.011779533206990423,10.978743442314109,0.5917595086092194
76.0,20.648981529199805,0.5249694504041963,0.011774155946241711,10.978309286332383,0.5917667707640003
77.0,20.652501823534372,0.5251392365648117,0.011768780178691422,10.977875200225267,0.5917737891424412
78.0,20.65602145847651,0.5253090113965048,0.011763405906348855,10.977441184071093,0.5917805625063594
79.0,20.65954043336398,0.5254787748303177,0.011758033131153667,10.97700723794816,0.5917872059255415
80.0,20.66305874753453,0.5256485267972945,0.011752661854976478,10.976573361934724,0.5917936376821332
81.0,20.66657640032593,0.5258182672284776,0.011747292072263004,10.976139556109024,0.5917999949244076
82.0,20.670093391075955,0.5259879960549204,0.01174192378377408,10.975705820549258,0.5918064004882339
83.0,20.673609719122407,0.5261577132076747,0.011736556991342038,10.975272155333586,0.5918129451902826
84.0,20.67712538380309,0.5263274186178029,0.01173119169674329,10.974838560540125,0.5918198865379775
85.0,20.68064038445582,0.5264971122163654,0.011725827901698028,10.97440503624695,0.5918266317218118
86.0,20.684154720418437,0.5266667939344354,0.011720465607869936,10.973971582532094,0.591833298253535
87.0,20.687668391028666,0.5268364637030847,0.011715104778337227,10.973538199473436,0.5918407467718693
88.0,20.691181395624323,0.5270061214533995,0.011709745447060722,10.973104887148901,0.5918481867915343
89.0,20.69469373354285,0.5271757671164407,0.011704387614112799,10.972671645636474,0.5918553942306098
90.0,20.698205404121698,0.5273454006232821,0.011699031280893517,10.972238475014095,0.591862350752192
91.0,20.70171640669832,0.5275150219050002,0.011693676448757415,10.971805375359665,0.5918692652545731
92.0,20.705226740610215,0.5276846308926736,0.011688323119013636,10.971372346751043,0.5918774089853606
93.0,20.7087364051949,0.527854227517387,0.011682971292925613,10.97093938926604,0.5918856271155853
94.0,20.712245399789893,0.5280238117102317,0.01167762097171104,10.970506502982433,0.5918943416269672
95.0,20.715753723734117,0.5281933834023054,0.011672272130266061,10.970073687977997,0.5919010552809918
96.0,20.719261376368348,0.5283629425246986,0.01166692473491964,10.969640944330525,0.5919103881319415
97.0,20.72276835702993,0.5285324890084796,0.01166157884611479,10.969208272117456,0.5919195073199088
98.0,20.726274665053502,0.5287020227842616,0.011656234431953688,10.968775671413983,0.5919277118909648
99.0,20.729780299776746,0.5288715437831689,0.01165089152383887,10.968343142297675,0.591935722035308
100.0,20.73328526053737,0.5290410519363333,0.011645550122773839,10.967910684846062,0.5919448474321202
101.0,20.736789546673098,0.5292105471748904,0.011640210229717335,10.967478299136634,0.5919528485918465
102.0,20.740293157521705,0.5293800294299832,0.011634871845583672,10.967045985246834,0.5919609556514341
103.0,20.743796092420975,0.5295494986327615,0.011629534971242476,10.966613743254069,0.5919696344824142
104.0,20.74729835070874,0.5297189547143862,0.011624199607518497,10.9661815732357,0.5919780220725367
105.0,20.750799931722867,0.5298883976060172,0.011618865755191516,10.965749475269044,0.5919859589335245
106.0,20.754300834801228,0.5300578272388315,0.011613533414995837,10.965317449431382,0.5919935460326428
107.0,20.757801059281753,0.5302272435440036,0.011608202587620025,10.964885495799948,0.5920010322075004
108.0,20.76130060450241,0.5303966464527229,0.011602873273706403,10.964453614451935,0.5920086113263213
109.0,20.76479946979978,0.5305660358965304,0.011597545515187433,10.964021805462593,0.592016092680392
110.0,20.76829765451041,0.5307354118069924,0.011592219312268448,10.963590068907076,0.5920236053613747
111.0,20.771795157972313,0.5309047741153173,0.011586894622621963,10.96315840486244,0.5920310217127516
112.0,20.775291979523566,0.5310741227527215,0.011581571442823565,10.962726813405721,0.5920380892504249
113.0,20.77878811850229,0.5312434576504282,0.011576249772905787,10.962295294613913,0.5920442659749826
114.0,20.782283574246637,0.5314127787396612,0.011570929613275127,10.961863848563967,0.5920504936829701
115.0,20.785778346094833,0.531582085951666,0.01156561096429449,10.961432475332794,0.5920569705139757
116.0,20.789272433381747,0.5317513792171137,0.011560293774510497,10.961001174992727,0.5920633882021272
117.0,20.792765835442903,0.5319206584666886,0.011554978039854731,10.960569947616856,0.5920695944980858
118.0,20.79625855161673,0.5320899236316613,0.011549663811128355,10.960138793282002,0.5920757975429182
119.0,20.799750581241668,0.5322591746433166,0.011544351088700368,10.959707712064958,0.5920825879929414
120.0,20.80324192365387,0.5324284114325432,0.011539039769305221,10.95927670403871,0.5920893647361701
121.0,20.80673257819089,0.5325976339304459,0.011533729905711183,10.958845769278362,0.5920963610472427
122.0,20.81022254418751,0.5327668420676233,0.011528421426221252,10.958414907856081,0.5921034181906805
123.0,20.813711820980373,0.5329360357750406,0.01152311436770845,10.95798411984641,0.5921105659197595
124.0,20.81720040790847,0.5331052149840735,0.011517808797323876,10.9575534053261,0.5921176540358182
125.0,20.820688304310853,0.533274379626098,0.011512504715999242,10.95712276437187,0.5921245245704019
126.0,20.824175509526626,0.5334435296325084,0.011507202123889611,10.956692197060379,0.5921316444396437
127.0,20.827662022893925,0.533612664934262,0.011501900951559686,10.956261703466634,0.5921366606111931
128.0,20.831147843752092,0.533781785462789,0.011496601265732992,10.955831283667251,0.5921440439395099
129.0,20.83463297143951,0.5339508911495229,0.01149130306021487,10.95540093773811,0.5921511479475684
130.0,20.838117405293183,0.5341199819256682,0.0114860063086698,10.954970665753986,0.5921581657969363
131.0,20.841601144651744,0.5342890577224915,0.011480710988274797,10.954540467789426,0.5921649486267545
132.0,20.845084188852702,0.5344581184711205,0.011475417034661643,10.954110343916575,0.5921710438191087
133.0,20.848566537235918,0.5346271641030823,0.011470124569573711,10.953680294211937,0.5921781908519405
134.0,20.852048189141374,0.5347961945499183,0.011464833594350276,10.953250318751977,0.5921859411904494
135.0,20.855529143909127,0.5349652097431933,0.01145954411031247,10.952820417613133,0.5921933260980102
136.0,20.859009400887164,0.5351342096147645,0.011454256083212065,10.952390590870365,0.5922005933936005
137.0,20.862488959418243,0.5353031940961789,0.01144896951506644,10.951960838599215,0.5922076764967481
138.0,20.865967818842265,0.5354721631190236,0.011443684433791717,10.951531160875758,0.592214481543705
139.0,20.86944597849858,0.5356411166148595,0.011438400825179702,10.951101557775527,0.5922211124521042
140.0,20.872923437727625,0.5358100545153234,0.011433118713426626,10.950672029374806,0.5922278040255229
141.0,20.876400195869916,0.5359789767520696,0.011427838099835044,10.950242575749845,0.5922349716795733
142.0,20.879876252266065,0.5361478832567688,0.011422558983392643,10.949813196976876,0.5922412025116052
143.0,20.88335160625677,0.5363167739611036,0.01141728136464674,10.94938389313209,0.5922500930774707
144.0,20.88682625718271,0.5364856487967382,0.011412005243065437,10.94895466429145,0.5922575572872761
145.0,20.89030020438363,0.536654507694987,0.011406730601239212,10.94852551052886,0.592264477925012
146.0,20.89377344720051,0.5368233505875907,0.011401457460487402,10.948096431920428,0.5922711677785535
147.0,20.897245984974408,0.5369921774063029,0.011396185822107358,10.947667428542223,0.5922775126528407
148.0,20.9007178170465,0.5371609880828973,0.01139091568736988,10.947238500470293,0.5922837493024856
149.0,20.90418894275835,0.5373297825491664,0.01138564705629603,10.946809647780647,0.5922901505063501
150.0,20.907659361452016,0.5374985607369318,0.011380379925551545,10.946380870549266,0.5922967495465528
151.0,20.911129072469663,0.5376673225780318,0.011375114292673471,10.945952168852115,0.5923038544655153
152.0,20.914598075153524,0.5378360680043183,0.01136985015909551,10.945523542765123,0.5923115591311566
153.0,20.91806636884595,0.5380047969476742,0.011364587526235734,10.94509499236419,0.592318892877065
154.0,20.92153395288919,0.5381735093399515,0.011359326373754993,10.944666517724682,0.5923268351448598
155.0,20.925000826625638,0.5383422051130405,0.011354066704477235,10.944238118921977,0.5923347415768107
156.0,20.928466989397904,0.5385108841988653,0.011348808537498098,10.943809796031866,0.5923420675935213
157.0,20.931932440548348,0.5386795465293064,0.011343551829904309,10.943381549129604,0.5923494356795049
158.0,20.935397179419553,0.5388481920363285,0.011338296605090021,10.94295337829044,0.5923567699375188
159.0,20.938861205354225,0.5390168206519843,0.011333042856854,10.942525283589386,0.5923643454258495
160.0,20.942324517695404,0.5391854323083026,0.0113277906159561,10.942097265102074,0.5923719718468152
161.0,20.945787115786256,0.5393540269373305,0.011322539888871023,10.941669322904215,0.5923798061852498
162.0,20.949248998969562,0.5395226044710247,0.011317290642841423,10.941241457070367,0.5923850607201128
163.0,20.952710166588684,0.5396911648414703,0.011312042913330026,10.940813667676185,0.5923931577924737
164.0,20.956170617987087,0.5398597079807749,0.01130679670208094,10.94038595479731,0.5924010910292401
165.0,20.959630352508285,0.5400282338210517,0.01130155200572982,10.93995831850929,0.5924077555221624
166.0,20.963089369495794,0.5401967422944225,0.01129630881163733,10.939530758887464,0.5924133212905328
167.0,20.96654766829336,0.5403652333330546,0.011291067139901757,10.939103276007389,0.5924196441718306
168.0,20.9700052482448,0.540533706869127,0.011285826991791648,10.93867586994459,0.5924257861198162
169.0,20.9734621086935,0.5407021628348508,0.011280588348251817,10.938248540773948,0.5924318723374725
170.0,20.976918248982848,0.5408706011624376,0.011275351203423982,10.937821288570609,0.5924384273638922
171.0,20.980373668456846,0.5410390217841218,0.011270115580088415,10.93739411340997,0.592444662006293
172.0,20.983828366459694,0.5412074246321704,0.011264881485179191,10.936967015367452,0.5924506357185085
173.0,20.987282342335686,0.5413758096388679,0.011259648919857998,10.936539994518439,0.5924576164489593
174.0,20.99073559542919,0.5415441767365193,0.011254417885258087,10.936113050938296,0.592464736471236
175.0,20.994188125084676,0.541712525857443,0.011249188382484303,10.935686184702353,0.5924697117849209
176.0,20.99763993064669,0.5418808569339859,0.011243960412613298,10.935259395885913,0.5924765277207562
177.0,21.001091011456747,0.5420491698978276,0.011238733901154879,10.934832684561682,0.5924821523017592
178.0,21.004541366858298,0.5422174646810524,0.011233508890102875,10.934406050803814,0.5924873526309258
179.0,21.00799099619611,0.5423857412160529,0.011228285410904672,10.933979494687495,0.5924928002419133
180.0,21.011439898815013,0.5425539994352359,0.011223063464530378,10.933553016287883,0.5924985357032925
181.0,21.014888074059964,0.5427222392710429,0.01121784305192747,10.933126615680115,0.5925046595201228
182.0,21.01833552127598,0.5428904606559233,0.011212624174022124,10.932700292939293,0.5925116987696086
183.0,21.021782239808186,0.5430586635223535,0.011207406831719731,10.9322740481405,0.5925189568351243
184.0,21.025228229001797,0.543226847802838,0.011202191025905554,10.931847881358788,0.5925257548357153
185.0,21.028673488202113,0.5433950134298863,0.011196976757445371,10.931421792669184,0.5925324931546951
186.0,21.032118016754467,0.5435631603360411,0.011191764021789005,10.930995782146606,0.5925396312237425
187.0,21.035561814004176,0.5437312884538582,0.011186552809893925,10.9305698498658,0.5925463374730555
188.0,21.039004879296822,0.5438993977159203,0.011181343138263581,10.930143995901712,0.5925526001535867
189.0,21.04244721197809,0.5440674880548371,0.011176135007693577,10.92971822032926,0.5925589386735722
190.0,21.04588881139375,0.5442355594032325,0.011170928418960358,10.929292523223333,0.5925655091445353
191.0,21.04932967688967,0.5444036116937601,0.011165723372821307,10.928866904658793,0.592571659529104
192.0,21.05276980781181,0.5445716448590873,0.01116051987001426,10.92844136471047,0.5925783206103544
193.0,21.056209203506047,0.5447396588318711,0.011155317901198626,10.928015903452897,0.5925843041402657
194.0,21.05964786331839,0.5449076535447857,0.011150117468716938,10.927590520960624,0.5925928060068917
