k,PSNR,SSIM,mse,Log-Gradient,Angle
0.0,20.5564274465075,0.3975745340923567,0.0,10.895221187055961,0.6027865362429313
1.0,20.559624612364892,0.3977320679111606,0.010057627371419285,10.894778939304526,0.6031951711212525
2.0,20.56345598019178,0.39792307954247647,0.012224855311894321,10.894252444101374,0.6032149040920258
3.0,20.567317719151063,0.39811581086872727,0.012358591747940554,10.893721938971932,0.6032304554699155
4.0,20.571181886957778,0.39830872440877924,0.012369493129866087,10.893191060456425,0.6032416228869449
5.0,20.575046222117777,0.39850169369994015,0.01236769091100121,10.892660110700229,0.6032524541138707
6.0,20.578910413592535,0.3986947011869084,0.012363593619259546,10.89212913591885,0.6032633619906318
7.0,20.582774400020707,0.3988877432632088,0.012358910519293328,10.891598146516868,0.6032742717687972
8.0,20.586638164714188,0.39908081884443997,0.01235400922493078,10.891067146210911,0.6032851618021451
9.0,20.590501701909734,0.39927392750241514,0.01234901166653458,10.890536136585915,0.6032960813817453
10.0,20.594365008704912,0.39946706900526624,0.012343970905163388,10.89000511839767,0.603307063352862
11.0,20.598228083889275,0.39966024323757937,0.01233890064106852,10.88947409218792,0.6033180959489753
12.0,20.602090926637583,0.3998534501037568,0.012333802022155286,10.88894305836109,0.6033291764986177
13.0,20.60595353620733,0.4000466895140515,0.012328685488873425,10.88841201719952,0.6033402754376981
14.0,20.609815911996595,0.400239961384061,0.0123235615787331,10.887880968868286,0.603351411391493
15.0,20.613678053381395,0.4004332656299363,0.012318432910839094,10.887349913495923,0.6033626296077154
16.0,20.617539959812348,0.40062660217261614,0.012313301704259783,10.886818851192254,0.6033738275837636
17.0,20.621401630761884,0.40081997093413024,0.01230817063688984,10.886287782056861,0.6033849668344632
18.0,20.625263065631913,0.40101337183170765,0.01230303724521577,10.88575670621171,0.6033961669205264
19.0,20.629124263884822,0.4012068047869131,0.012297904571956392,10.88522562373818,0.6034073189340142
20.0,20.632985225003708,0.40140026972278037,0.012292772987309363,10.88469453471313,0.6034185264035886
21.0,20.63684594847323,0.401593766562457,0.012287642150380914,10.88416343921985,0.6034296868511473
22.0,20.64070643377921,0.4017872952291881,0.012282512221963932,10.883632337336978,0.6034408695400411
23.0,20.644566680408243,0.4019808556462539,0.012277383449417143,10.883101229136056,0.6034520594118896
24.0,20.64842668784746,0.4021744477369489,0.012272255330487349,10.882570114689551,0.6034632190967344
25.0,20.65228645558433,0.40236807142456743,0.012267128455761231,10.88203899406695,0.6034743731429902
26.0,20.656145983106544,0.40256172663237955,0.012262002341606093,10.881507867341114,0.6034854668006845
27.0,20.660005269901895,0.40275541328362924,0.012256875826078236,10.880976734589812,0.6034965218241598
28.0,20.663864315458206,0.40294913130152143,0.012251749445599825,10.880445595886215,0.6035074970588338
29.0,20.667723119263268,0.40314288060921005,0.012246624271946418,10.879914451297898,0.6035185106197866
30.0,20.671581680804785,0.40333666112980887,0.012241500243690686,10.8793833008925,0.603529621363215
31.0,20.67543999957038,0.4035304727863716,0.012236376875596346,10.87885214473935,0.6035407542402388
32.0,20.679298075047512,0.4037243155018964,0.012231254715936408,10.878320982905501,0.6035518362878203
33.0,20.683155906723524,0.40391818919932027,0.012226133724609976,10.877789815456659,0.6035628465468958
34.0,20.687013494085544,0.40411209380152563,0.012221013319048792,10.87725864245279,0.60357378256827
35.0,20.690870836620533,0.40430602923133163,0.012215893573336245,10.876727463965281,0.6035847204691565
36.0,20.69472793381527,0.40449999541149023,0.012210774566430898,10.8761962800638,0.6035956107079938
37.0,20.698584785156314,0.40469399226469177,0.01220565597111237,10.87566509081957,0.603606395279374
38.0,20.702441390130044,0.4048880197135641,0.012200537841084522,10.875133896302275,0.6036170909581898
39.0,20.706297748222614,0.4050820776806677,0.012195420877662982,10.874602696578444,0.6036277204921102
40.0,20.710153858919952,0.4052761660884967,0.012190305080348761,10.874071491714629,0.6036382662748346
41.0,20.714009721707765,0.40547028485948816,0.012185190448440615,10.873540281777403,0.6036487365090802
42.0,20.717865336071533,0.4056644339160012,0.012180076981068154,10.873009066833365,0.6036590772807223
43.0,20.721720701496512,0.4058586131803346,0.012174964677220734,10.872477846949149,0.6036692807764538
44.0,20.725575817467714,0.4060528225747218,0.012169853535772057,10.871946622191418,0.6036796735164383
45.0,20.729430683469936,0.40624706202133193,0.012164743555500944,10.871415392626878,0.6036899961404982
46.0,20.73328529898773,0.40644133144226097,0.012159634735108974,10.87088415832227,0.6037002035531736
47.0,20.737139663505406,0.40663563075954207,0.012154527073235177,10.870352919344377,0.6037105731574507
48.0,20.740993776507068,0.4068299598951473,0.012149420542898286,10.869821675759523,0.6037207691921781
49.0,20.74484763747655,0.4070243187709734,0.012144314879101234,10.869290427629446,0.6037316183653444
50.0,20.74870124589748,0.40721870730885507,0.012139210363000285,10.868759175021063,0.6037435434728949
51.0,20.752554601253212,0.40741312543056124,0.01213410699340465,10.868227918001342,0.6037552277391369
52.0,20.756407703026905,0.4076075730577971,0.012129004769112427,10.867696656637296,0.603766692208517
53.0,20.760260550701446,0.4078020501121952,0.012123903665332059,10.86716539099558,0.6037779632965344
54.0,20.76411314375951,0.407996556515329,0.012118803546868586,10.866634121140613,0.6037891872701461
55.0,20.767965481683525,0.40819109218869926,0.012113704469292434,10.866102847138478,0.603800503339489
56.0,20.771817563955665,0.40838565705374474,0.012108606438773905,10.865571569055403,0.6038119292095158
57.0,20.775669390057892,0.40858025103183854,0.012103509545894354,10.865040286958669,0.6038233760947616
58.0,20.779520959471924,0.40877487404428803,0.012098413789794817,10.86450900091561,0.6038349685507801
59.0,20.783372271679227,0.4089695260123383,0.012093319080584114,10.863977710993002,0.6038465807363498
60.0,20.78722332616106,0.4091642068571586,0.012088225376378206,10.863446417257755,0.6038579958088363
61.0,20.791074122398427,0.40935891649986383,0.012083132547750413,10.862915119779707,0.6038690113003007
62.0,20.794924659872102,0.409553654861498,0.012078040775823633,10.862383818626844,0.6038798129052921
63.0,20.798774938062643,0.4097484218630427,0.012072950148185968,10.86185251386668,0.6038903507882611
64.0,20.802624956450334,0.4099432174254107,0.012067860664576819,10.86132120556678,0.603900805939085
65.0,20.806474714515268,0.4101380414694566,0.012062772324746233,10.860789893794761,0.6039112464734387
66.0,20.810324211737278,0.41033289391595956,0.012057685004614235,10.860258578619106,0.603921558804792
67.0,20.814173447595977,0.4105277746856459,0.012052598801869482,10.859727260107691,0.6039318037627954
68.0,20.818022421570745,0.41072268369917325,0.012047513745979576,10.859195938328249,0.6039419789599109
69.0,20.821871133140725,0.41091762087712896,0.01204242983684237,10.858664613348562,0.6039520637247228
70.0,20.825719581784835,0.4111125861400439,0.012037347074366742,10.858133285236475,0.603962422574852
71.0,20.82956776698174,0.4113075794083832,0.01203226545847318,10.857601954059874,0.6039731837352856
72.0,20.83341568820991,0.4115026006025427,0.012027184989094275,10.857070619886704,0.6039846805504913
73.0,20.837263344947544,0.4116976496428657,0.012022105666175118,10.856539282784963,0.6039950605479556
74.0,20.84111073667266,0.41189272644961444,0.012017027489673829,10.856007942822698,0.6040045477985427
75.0,20.844957862863,0.41208783094300544,0.012011950459561741,10.855476600068013,0.6040142755669983
76.0,20.848804722996096,0.4122829630431803,0.012006874575823787,10.85494525458906,0.6040242603299277
77.0,20.852651316549252,0.4124781226702228,0.012001799838458727,10.854413906454047,0.6040344955505922
78.0,20.85649764299955,0.41267330974415145,0.011996726247479276,10.853882555731236,0.6040439924713946
79.0,20.860343701823826,0.4128685241849181,0.011991653802912363,10.853351202488936,0.6040518040692546
80.0,20.8641894924987,0.4130637659124207,0.011986582504799203,10.852819846795514,0.6040618431594376
81.0,20.86803501450056,0.41325903484648574,0.011981512353195407,10.852288488719386,0.6040715076937823
82.0,20.87188026730557,0.4134543309068824,0.011976443348171014,10.851757128329025,0.6040808424714128
83.0,20.875725250389667,0.4136496540133119,0.011971375489810553,10.85122576569295,0.6040898707063965
84.0,20.879569963228573,0.41384500408541997,0.011966308778213095,10.850694400879739,0.6040986188643384
85.0,20.88341440529776,0.41404038104278734,0.011961243213492182,10.850163033958017,0.6041072032058249
86.0,20.88725857607249,0.4142357848049289,0.011956178795775827,10.849631664996465,0.6041167818495348
87.0,20.891102475027804,0.4144312152913024,0.011951115525206491,10.849100294063815,0.6041265436180461
88.0,20.894946101638507,0.4146266724212985,0.011946053401940979,10.84856892122885,0.6041360240034098
89.0,20.898789455379195,0.4148221561142538,0.01194099242615039,10.848037546560409,0.6041453377029503
90.0,20.902632535724223,0.41501766628943804,0.01193593259802004,10.847506170127378,0.6041546271786458
91.0,20.90647534214774,0.4152132028660593,0.011930873917749274,10.8469747919987,0.6041640334494189
92.0,20.910317874123656,0.4154087657632674,0.011925816385551484,10.846443412243367,0.6041737724409316
93.0,20.91416013112567,0.4156043549001482,0.011920760001653818,10.845912030930423,0.6041840247580458
94.0,20.91800211262726,0.4157999701957275,0.011915704766297186,10.845380648128968,0.60419428236674
95.0,20.921843818101674,0.4159956115689696,0.011910650679736016,10.844849263908147,0.6042047856964342
96.0,20.92568524702195,0.41619127893878133,0.011905597742238094,10.844317878337161,0.6042156567125437
97.0,20.929526398860897,0.4163869722240033,0.011900545954084456,10.843786491485266,0.6042263328031229
98.0,20.933367273091108,0.4165826913434207,0.011895495310675663,10.843255103421761,0.6042367813076345
99.0,20.937207869184952,0.41677843621575567,0.011890445808177415,10.842723714215998,0.6042469890032584
100.0,20.941048186614584,0.4169742067596734,0.011885397447030877,10.84219232393738,0.6042569682654854
101.0,20.944888224851944,0.4171700028937735,0.0118803502277031,10.841660932655358,0.6042668199276094
102.0,20.948727983368734,0.4173658245365997,0.011875304150686517,10.841129540439436,0.6042766110669027
103.0,20.952567461636477,0.4175616716066362,0.011870259216498516,10.840598147359167,0.60428653485671
104.0,20.956406659126433,0.41775754402230864,0.011865215423382746,10.840066753484164,0.6042971217811149
105.0,20.960245575309678,0.41795344170197724,0.011860172770686357,10.839535358884095,0.6043075793033758
106.0,20.964084209657052,0.4181493645639473,0.011855131259042891,10.839003963628679,0.6043179251912351
107.0,20.967922561639195,0.4183453125264693,0.011850090889111958,10.83847256778768,0.6043284280996102
108.0,20.97176063072652,0.4185412855077239,0.0118450516615789,10.837941171430915,0.6043387942360792
109.0,20.975598416389243,0.4187372834258438,0.011840013575571105,10.837409774628254,0.6043490290992296
110.0,20.979435918097323,0.41893330619889585,0.011834976631053156,10.836878377449624,0.6043596161603607
111.0,20.98327313532056,0.41912935374489435,0.011829940828905405,10.836346979964995,0.6043702448614282
112.0,20.98711006752849,0.41932542598178313,0.011824906170033811,10.83581558224439,0.6043809917114377
113.0,20.990946714190486,0.4195215228274655,0.011819872655368954,10.835284184357876,0.6043920865661566
114.0,20.994783074775654,0.4197176441997723,0.011814840285864945,10.83475278637557,0.6044032056481415
115.0,20.998619148752937,0.41991379001648527,0.011809809061774756,10.834221388367629,0.6044141174032703
116.0,21.002454935591032,0.4201099601953198,0.011804778983989203,10.833689990404245,0.6044236329107052
117.0,21.006290434758444,0.42030615465394233,0.011799750053631023,10.833158592555671,0.6044349734841123
118.0,21.010125645723463,0.42050237330995327,0.011794722271840932,10.832627194892202,0.604446067041272
119.0,21.01396056795415,0.4206986160809045,0.011789695639776294,10.832095797484184,0.6044565910482382
120.0,21.017795200918385,0.42089488288428534,0.011784670158609652,10.831564400402014,0.6044670024589426
121.0,21.021629544083822,0.4210911736375283,0.011779645829527214,10.831033003716136,0.604477356030929
122.0,21.025463596917923,0.42128748825801116,0.011774622653727486,10.830501607497045,0.6044878069995187
123.0,21.0292973588879,0.42148382666305073,0.011769600632419726,10.829970211815281,0.6044980038385775
124.0,21.033130829460802,0.4216801887699108,0.011764579766822542,10.829438816741442,0.6045078093533778
125.0,21.036964008103446,0.42187657449580107,0.011759560058162238,10.828907422346166,0.6045172326744855
126.0,21.04079689428245,0.4220729837578689,0.011754541507671521,10.828376028700148,0.6045265957456708
127.0,21.044629487464235,0.42226941647320854,0.011749524116587824,10.827844635874126,0.6045365416837403
128.0,21.04846178711498,0.42246587255885754,0.011744507886151919,10.827313243938892,0.6045469543197646
129.0,21.052293792700713,0.42266235193180046,0.011739492817606278,10.826781852965286,0.604556715993991
130.0,21.056125503687202,0.42285885450896066,0.011734478912193737,10.826250463024197,0.604567658706357
131.0,21.05995691954005,0.4230553802072092,0.011729466171155832,10.825719074186566,0.6045784901199865
132.0,21.06378803972462,0.4232519289433641,0.011724454595731383,10.825187686523376,0.6045881155515038
133.0,21.067618863706112,0.4234485006341817,0.011719444187155002,10.824656300105671,0.6045976838505766
134.0,21.071449390949493,0.42364509519637267,0.011714434946655571,10.824124915004537,0.6046072206821985
135.0,21.075279620919538,0.4238417125465826,0.011709426875454726,10.82359353129111,0.604616555014076
136.0,21.079109553080805,0.42403835260140726,0.011704419974765578,10.823062149036577,0.6046259165009926
137.0,21.08293918689768,0.4242350152773892,0.011699414245791032,10.822530768312175,0.6046351347755363
138.0,21.086768521834323,0.4244317004910126,0.011694409689722494,10.82199938918919,0.6046438243838262
139.0,21.09059755735469,0.4246284081587112,0.011689406307738431,10.821468011738956,0.6046538246997543
140.0,21.094426292922563,0.424825138196862,0.011684404099367985,10.82093663603286,0.6046650687536732
141.0,21.098254728001493,0.4250218905217875,0.011679403063258927,10.820405262142303,0.6046747609434564
142.0,21.102082862054843,0.425218665049762,0.01167440320062477,10.819873890138744,0.6046830175970821
143.0,21.105910694545784,0.42541546169699423,0.011669404512664374,10.819342520093684,0.6046919817622377
144.0,21.109738224937292,0.4256122803796532,0.011664406988986983,10.818811152078194,0.604701628026231
145.0,21.113565452692118,0.42580912101384616,0.011659410609349129,10.818279786162623,0.6047114233015057
146.0,21.117392377272843,0.4260059835156282,0.01165441540320541,10.817748422418505,0.6047212283020157
147.0,21.12121899814184,0.42620286780100064,0.01164942137449443,10.8172170609175,0.6047311391109179
148.0,21.125045314761273,0.42639977378592214,0.011644428524353238,10.816685701731316,0.6047418444357437
149.0,21.12887132659313,0.4265967013862772,0.011639436853899895,10.816154344931709,0.604753731812905
150.0,21.132697033099195,0.4267936505179186,0.011634446364231978,10.815622990590484,0.6047658548052129
151.0,21.136522433741053,0.42699062109663805,0.011629457056425166,10.81509163877949,0.604777928508689
152.0,21.140347527980097,0.42718761303817065,0.01162446893017551,10.814560289570641,0.6047883974961638
153.0,21.144172315277526,0.4273846262582121,0.011619481981731425,10.81402894303593,0.6047975303469176
154.0,21.147996795094336,0.4275816606723895,0.01161449621205622,10.813497599247397,0.6048066406205005
155.0,21.15182096689135,0.42777871619629115,0.011609511602163974,10.81296625827654,0.6048158971557606
156.0,21.155644830129173,0.42797579274545144,0.011604528154872607,10.812434920194969,0.6048255575940703
157.0,21.159468384268244,0.4281728902353505,0.011599545887928886,10.81190358507488,0.6048353208948899
158.0,21.163291628768796,0.42837000858141056,0.011594564800972988,10.81137225298852,0.6048439161829674
159.0,21.167114563090863,0.42856714769902143,0.011589584894977772,10.81084092400818,0.6048522747740241
160.0,21.170937186694296,0.42876430750350075,0.011584606170890228,10.810309598206207,0.6048607004585194
161.0,21.174759499038764,0.42896148791013483,0.011579628629630054,10.809778275654983,0.6048694123719431
162.0,21.178581499583732,0.4291586888341376,0.011574652271352437,10.809246956426932,0.6048781558913682
163.0,21.182403187788488,0.42935591019069275,0.011569677096120553,10.808715640594496,0.6048868984751904
164.0,21.186224563112116,0.4295531518949231,0.011564703104767154,10.808184328230167,0.6048954738211415
165.0,21.190045625013525,0.42975041386190344,0.011559730296844454,10.80765301940648,0.6049039429118593
166.0,21.193866372951433,0.4299476960066601,0.011554758671294782,10.807121714196024,0.6049126010185754
167.0,21.19768680638436,0.43014499824416674,0.011549788228098668,10.806590412671433,0.604921300029992
168.0,21.20150692477065,0.43034232048934634,0.011544818968130659,10.806059114905391,0.6049311140651435
169.0,21.205326727568462,0.43053966265707627,0.011539850892234194,10.805527820970628,0.6049411279427426
170.0,21.20914621423576,0.43073702466218305,0.011534884000968243,10.804996530939924,0.6049509098315836
171.0,21.212965384230312,0.4309344064194435,0.011529918292583503,10.804465244886122,0.6049604577850652
172.0,21.21678423700974,0.4311318078435858,0.01152495376788021,10.803933962882116,0.6049703187864682
173.0,21.220602772031437,0.43132922884928887,0.011519990427626851,10.803402685000844,0.6049799029713145
174.0,21.224420988752644,0.43152666935118283,0.011515028272559482,10.802871411315289,0.6049892695181512
175.0,21.2282388866304,0.43172412926384895,0.011510067303381027,10.80234014189849,0.6049991196315818
176.0,21.23205646512156,0.43192160850182093,0.01150510752076064,10.801808876823527,0.6050090935984441
177.0,21.235873723682804,0.4321191069795849,0.011500148925333254,10.801277616163526,0.6050191106858046
178.0,21.23969066177063,0.43231662461158066,0.011495191517699007,10.800746359991665,0.6050295612109547
179.0,21.243507278841363,0.43251416131218906,0.01149023529842295,10.80021510838117,0.6050399380492796
180.0,21.247323574351114,0.4327117169957604,0.011485280268034689,10.799683861405311,0.6050501956441235
181.0,21.25113954775585,0.43290929157658103,0.011480326427028061,10.799152619137407,0.605060421596894
182.0,21.254955198511347,0.43310688496890454,0.011475373775861046,10.798621381650825,0.6050704299606983
183.0,21.258770526073178,0.4333044970869264,0.01147042231495564,10.798090149018979,0.6050792316804439
184.0,21.262585529896768,0.4335021278447979,0.011465472044697628,10.797558921315332,0.6050892551005641
185.0,21.26640020943735,0.43369977715662794,0.011460522865721036,10.797027698608174,0.6051002787779496
186.0,21.270214564149974,0.43389744493647214,0.011455574858223579,10.796496480970548,0.605110669959459
187.0,21.274028593489508,0.43409513109834424,0.011450628031985413,10.795965268476063,0.6051201648594772
188.0,21.277842296910645,0.43429283555620574,0.011445682387412927,10.795434061198375,0.6051291964799991
189.0,21.28165567386791,0.43449055822398436,0.011440737924889838,10.79490285921119,0.60513862377709
190.0,21.28546872381563,0.43468829901554407,0.011435794644777113,10.79437166258826,0.6051481944487167
191.0,21.289281446207987,0.4348860578447191,0.01143085239794191,10.793840471403007,0.6051578220700639
192.0,21.293093840498955,0.43508383462528816,0.011425911281065786,10.793309285729189,0.6051675058331419
