k,PSNR,SSIM,mse,Log-Gradient,Angle
0.0,20.5564274465075,0.3975745340923567,0.0,10.895221187055961,0.6027865362429313
1.0,20.55962469432869,0.3977320719501532,0.010057885179974647,10.894778927966218,0.6031951714118914
2.0,20.563456242364907,0.39792309252092495,0.012225422950530989,10.894252407920789,0.6032149047882872
3.0,20.567318260587413,0.3981158377350569,0.012359474848643193,10.893721864335122,0.6032304570564867
4.0,20.57118280679728,0.39830877011960847,0.012370692689104736,10.893190933733647,0.6032416257780967
5.0,20.575047619529137,0.39850176321687675,0.012369206948147877,10.89265991825365,0.6032524585003143
6.0,20.578912387765406,0.39869479947609837,0.012365425960003758,10.892128864103714,0.6032633681782317
7.0,20.58277705016409,0.39888787529524006,0.01236105893884706,10.891597781681785,0.6032742800231101
8.0,20.58664159005598,0.3990809895943124,0.012356473481936235,10.89106667469796,0.6032851723554439
9.0,20.590506001696475,0.3992741419495085,0.01235179151327089,10.890535544730692,0.6032960944327106
10.0,20.594370282201666,0.3994673321333388,0.012347066090524113,10.890004392529319,0.6033070792944902
11.0,20.598234430379527,0.3996605600347467,0.012342310912944446,10.889473218629144,0.6033181151197203
12.0,20.602098445423167,0.39985382556249216,0.012337527128021546,10.888942023428188,0.6033291991680789
13.0,20.605962326608292,0.40004712863116315,0.012332725175232193,10.88841080720238,0.603340301895897
14.0,20.609826073351172,0.4002404691606915,0.012327915590696688,10.88787957011041,0.6033514421954759
15.0,20.613689685045912,0.40043384707154783,0.012323100993504804,10.887348312274428,0.6033626648701895
16.0,20.617553161161098,0.40062726228897727,0.01231828360205915,10.886817033797886,0.6033738672173617
17.0,20.621416501187095,0.40082071473931385,0.012313466094212,10.886285734773997,0.6033850114264799
18.0,20.625279704543654,0.40101420434407276,0.01230864600672893,10.885754415318372,0.6033962162670937
19.0,20.62914277071091,0.4012077310290995,0.012303826381794454,10.885223075506039,0.6034073733087223
20.0,20.63300569918962,0.4014012947216928,0.012299007589609508,10.88469171540752,0.6034185872269479
21.0,20.63686848948206,0.4015948953492651,0.012294189289425947,10.884160335099766,0.6034297530224612
22.0,20.640731141091543,0.40178853283930466,0.012289371641931324,10.883628934655091,0.6034409424097876
23.0,20.644593653522097,0.40198220711932814,0.012284554894560006,10.883097514138715,0.6034521389444816
24.0,20.6484560262782,0.40217591811686154,0.01227973854509528,10.882566073616797,0.6034633052830961
25.0,20.65231825886459,0.40236966575941446,0.01227492318404347,10.882034613152515,0.603474466173202
26.0,20.65618035078614,0.4025634499744612,0.012270108328070814,10.881503132812433,0.603485567348528
27.0,20.660042301547755,0.40275727068944694,0.012265292816111278,10.880971632668029,0.6034966291856819
28.0,20.66390411065427,0.40295112783175724,0.012260477182973085,10.880440112786193,0.6035076123919899
29.0,20.667765777610416,0.403145021328722,0.012255662500940078,10.879908573228226,0.6035186342896585
30.0,20.671627301920758,0.403338951107622,0.012250848708999559,10.879377014055494,0.6035297549748438
31.0,20.67548868308969,0.4035329170956645,0.012246035321339294,10.87884543533107,0.6035408962795462
32.0,20.679349920621384,0.4037269192199864,0.012241222886452914,10.878313837115755,0.6035519869712046
33.0,20.68321101401976,0.4039209574076649,0.012236411364354405,10.877782219469001,0.6035630052314244
34.0,20.687071962788494,0.4041150315857005,0.012231600172920958,10.87725058244454,0.6035739504055225
35.0,20.690932766431,0.40430914168102117,0.012226789385762275,10.876718926107525,0.6035848986068666
36.0,20.694793424450403,0.40450328762048277,0.012221979082536673,10.8761872505214,0.6035957972846875
37.0,20.69865393634955,0.4046974693308692,0.012217168936291413,10.875655555751168,0.6036065912138221
38.0,20.70251430163101,0.4048916867388821,0.01221235899899131,10.875123841860304,0.6036172952167337
39.0,20.706374519797052,0.40508593977115365,0.012207549972782485,10.874592108909145,0.6036279347966877
40.0,20.710234590349646,0.40528022835423844,0.01220274185718757,10.87406035695804,0.6036384897561348
41.0,20.71409451279043,0.4054745524146122,0.012197934651526878,10.873528586067378,0.6036489687348037
42.0,20.71795428662076,0.4056689118786759,0.012193128354951491,10.872996796297581,0.6036593171947152
43.0,20.721813911341656,0.4058633066727578,0.012188322966472171,10.872464987709108,0.6036695373778757
44.0,20.72567338645383,0.4060577367231009,0.012183518484984057,10.871933160362461,0.6036799391179565
45.0,20.7295327114577,0.40625220195587497,0.012178714909287272,10.871401314318188,0.6036902733214936
46.0,20.73339188585333,0.4064467022971745,0.012173912238104496,10.87086944963688,0.6037004880121154
47.0,20.737250909140492,0.40664123767301286,0.012169110470095973,10.87033756637918,0.6037108732326142
48.0,20.741109780818622,0.4068358080093293,0.012164309578385477,10.869805664605272,0.6037210818003171
49.0,20.74496850038686,0.40703041323198524,0.012159509298113507,10.869273744370773,0.6037320031751573
50.0,20.74882706734398,0.40722505326676206,0.012154709910259609,10.868741805736482,0.6037439343449412
51.0,20.752685481188486,0.40741972803936655,0.012149911413653673,10.868209848763255,0.6037556270178727
52.0,20.75654374141852,0.40761443747542775,0.012145113807114277,10.867677873512006,0.6037670982549278
53.0,20.760401847531924,0.40780918150049805,0.012140317066079678,10.867145880043292,0.6037783808122882
54.0,20.764259799026206,0.4080039600400498,0.012135521055112633,10.866613868415444,0.6037896191344729
55.0,20.76811759539857,0.4081987730194805,0.012130725830326549,10.86608183868847,0.6038009628121798
56.0,20.771975236145867,0.408393620364115,0.012125931397139963,10.86554979092252,0.6038124031114188
57.0,20.775832720764647,0.40858850199919056,0.012121137846457337,10.865017725178815,0.6038238708532523
58.0,20.779690048751128,0.40878341784987593,0.012116345177439704,10.864485641518627,0.6038354876605161
59.0,20.783547219601207,0.40897836784126107,0.01211155330276123,10.863953540002703,0.6038471128656216
60.0,20.78740423281047,0.40917335189835446,0.012106762176944983,10.863421420691884,0.603858531167672
61.0,20.791261087874172,0.40936836994610054,0.012101971672173683,10.862889283649979,0.6038695504107179
62.0,20.795117784287246,0.40956342190935024,0.012097181967744659,10.862357128938957,0.6038803530466762
63.0,20.79897432154432,0.40975850771289374,0.012092393152586131,10.861824956620314,0.6038909022206247
64.0,20.80283069913969,0.4099536272814331,0.012087605226456652,10.861292766755609,0.6039013744557865
65.0,20.806686916567322,0.41014878053960047,0.012082818189125343,10.86076055940646,0.6039118273780509
66.0,20.81054297332088,0.4103439674119498,0.01207803191916131,10.860228334635336,0.6039221529339319
67.0,20.814398868893708,0.4105391878229587,0.012073246509239454,10.859696092504146,0.6039324127030532
68.0,20.818254602778808,0.41073444169703005,0.012068461991249035,10.859163833074648,0.6039426022808273
69.0,20.822110174468893,0.4109297289584904,0.012063678365106537,10.85863155640866,0.6039526952120351
70.0,20.825965583456338,0.4111250495315876,0.012058895630739372,10.858099262568059,0.6039631035954756
71.0,20.8298208292332,0.4113204033404994,0.012054113788086507,10.857566951614784,0.603973925071491
72.0,20.83367591129123,0.4115157903093241,0.012049332837098817,10.857034623610836,0.6039854804241457
73.0,20.83753082912184,0.4117112103620843,0.012044552777739678,10.856502278618278,0.6039957226475552
74.0,20.841385582216134,0.41190666342272836,0.012039773609985273,10.855969916699229,0.6040052465111895
75.0,20.845240170064912,0.41210214941512874,0.012034995333824981,10.855437537915872,0.6040150139676216
76.0,20.849094592158632,0.41229766826308456,0.012030217949261622,10.854905142330455,0.6040250319853578
77.0,20.852948847987456,0.4124932198903166,0.012025441456311733,10.85437273000528,0.6040353012770646
78.0,20.856802937041216,0.4126888042204744,0.012020665855005767,10.853840301002714,0.6040446315918858
79.0,20.86065685880943,0.4128844211771314,0.012015891145388197,10.853307855385184,0.6040525017810077
80.0,20.864510612781302,0.4130800706837839,0.012011117327517742,10.852775393215177,0.6040626785831842
81.0,20.868364198445715,0.41327575266385524,0.012006344401467372,10.852242914555244,0.6040723340094528
82.0,20.872217615291248,0.41347146704069565,0.012001572367324347,10.851710419467993,0.6040816627689076
83.0,20.876070862806145,0.41366721373757814,0.011996801225190446,10.851177908016098,0.6040906765064961
84.0,20.879923940478356,0.4138629926777037,0.011992030975181726,10.850645380262286,0.6040994350805878
85.0,20.8837768477955,0.41405880378419724,0.01198726161742869,10.850112836269355,0.6041080496889716
86.0,20.887629584244877,0.4142546469801153,0.011982493152076197,10.849580276100156,0.6041177514967635
87.0,20.89148214931351,0.41445052218843065,0.011977725579283454,10.849047699817602,0.604127509189734
88.0,20.895334542488058,0.4146464293320474,0.011972958899223876,10.848515107484673,0.6041369863624764
89.0,20.89918676325489,0.4148423683338003,0.011968193112085121,10.8479824991644,0.6041463117301882
90.0,20.90303881110007,0.4150383391164419,0.011963428218068914,10.847449874919885,0.604155634723346
91.0,20.906890685509328,0.415234341602656,0.011958664217390934,10.846917234814285,0.6041651055962421
92.0,20.910742385968103,0.415430375715056,0.01195390111028078,10.846384578910817,0.604174894885113
93.0,20.914593911961504,0.4156264413761744,0.011949138896981749,10.84585190727276,0.6041852154329163
94.0,20.918445262974338,0.4158225385084766,0.011944377577750746,10.845319219963457,0.6041954815401739
95.0,20.922296438491088,0.4160186670343528,0.011939617152858134,10.844786517046305,0.604206096399223
96.0,20.92614743799595,0.4162148268761212,0.011934857622587522,10.84425379858477,0.6042169827233937
97.0,20.929998260972773,0.41641101795602536,0.01193009898723567,10.84372106464237,0.6042276554144373
98.0,20.933848906905133,0.41660724019623646,0.011925341241457048,10.843188315282687,0.6042381073032691
99.0,20.93769937527626,0.4168034935188554,0.011920584382188076,10.84265555056936,0.6042483059050097
100.0,20.941549665569102,0.4169997778459093,0.011915828409886052,10.842122770566085,0.6042582974167665
101.0,20.945399777266278,0.41719609309935146,0.011911073325034075,10.841589975336623,0.6042681406011872
102.0,20.949249709850115,0.41739243920106395,0.011906319128140566,10.84105716494479,0.6042779837416883
103.0,20.953099462802598,0.4175888160728578,0.011901565819738733,10.84052433945446,0.6042880399963466
104.0,20.95694903560545,0.4177852236364769,0.011896813397769416,10.839991498929582,0.6042986454330556
105.0,20.960798427740045,0.41798166181357516,0.011892061861912209,10.839458643434162,0.6043090961078778
106.0,20.96464763868746,0.4181781305257592,0.011887311212816491,10.838925773032267,0.6043195065885604
107.0,20.968496667928484,0.41837462969454803,0.011882561451157755,10.838392887788027,0.6043300221243698
108.0,20.972345514943566,0.4185711592413887,0.011877812577637115,10.837859987765622,0.6043403972372106
109.0,20.97619417921287,0.4187677190876696,0.011873064591185258,10.837327073029302,0.6043506975413302
110.0,20.98004266021625,0.41896430915469324,0.011868317492000312,10.836794143643377,0.6043613332508272
111.0,20.983890957433225,0.41916092936370425,0.011863571280978466,10.836261199672217,0.6043720046581077
112.0,20.987739070343068,0.41935757963586046,0.011858825959041567,10.835728241180245,0.6043828400759805
113.0,20.99158699842468,0.41955425989226347,0.011854081527135933,10.835195268231944,0.604393988496022
114.0,20.995434741156696,0.4197509700539425,0.011849337986231286,10.834662280891855,0.6044051554125734
115.0,20.999282298017434,0.41994771004184367,0.011844595336456784,10.834129279224559,0.6044159327325416
116.0,21.003129668484902,0.4201444797768561,0.011839853578868253,10.833596263294696,0.6044252027954932
117.0,21.006976852036825,0.42034127917979697,0.011835112714604154,10.833063233166968,0.6044370725820715
118.0,21.01082384815058,0.4205381081713992,0.011830372744820915,10.832530188906128,0.6044480560892329
119.0,21.014670656303288,0.4207349666723464,0.011825633670691466,10.831997130576992,0.6044585638319298
120.0,21.01851727597174,0.4209318546032357,0.0118208954934038,10.831464058244437,0.6044690127195635
121.0,21.02236370663242,0.4211287718846084,0.011816158214159475,10.830930971973395,0.6044794018387422
122.0,21.026209947761522,0.42132571843692085,0.011811421834172268,10.830397871828856,0.6044898725344873
123.0,21.030055998834936,0.4215226941805694,0.01180668635466657,10.829864757875871,0.6045000258399816
124.0,21.033901859328243,0.4217196990358784,0.011801951776875987,10.82933163017955,0.6045097766238134
125.0,21.037747528716718,0.42191673292310444,0.011797218102041799,10.828798488805061,0.6045192005016965
126.0,21.04159300647535,0.4221137957624364,0.011792485331411393,10.828265333817631,0.604528574823297
127.0,21.04543829207881,0.4223108874739842,0.011787753466236962,10.827732165282546,0.6045387990655994
128.0,21.049283385001477,0.42250800797780114,0.011783022507773772,10.82719898326515,0.6045492229849992
129.0,21.05312828471742,0.42270515719386575,0.011778292457278785,10.826665787830848,0.604558863793602
130.0,21.056972990700423,0.42290233504208713,0.011773563316009107,10.826132579045105,0.6045702393253278
131.0,21.06081750242396,0.42309954144230727,0.011768835085220456,10.825599356973438,0.6045807483896076
132.0,21.0646618193612,0.4232967763143027,0.011764107766165748,10.825066121681434,0.6045903531174597
133.0,21.068505940985016,0.4234940395777764,0.011759381360093489,10.824532873234732,0.6045999669053768
134.0,21.072349866768,0.4236913311523638,0.011754655868246333,10.823999611699032,0.6046094938205345
135.0,21.076193596182414,0.423888650957635,0.011749931291859672,10.823466337140092,0.6046188391979652
136.0,21.080037128700248,0.42408599891309223,0.011745207632160104,10.82293304962373,0.6046282478067108
137.0,21.083880463793175,0.42428337493816687,0.011740484890363907,10.822399749215828,0.6046374100804287
138.0,21.08772360093258,0.4244807789522281,0.011735763067675826,10.82186643598232,0.604646117692536
139.0,21.09156653958955,0.4246782108745671,0.011731042165287447,10.821333109989205,0.6046570083830506
140.0,21.09540927923488,0.42487567062442166,0.011726322181923975,10.820799771302532,0.6046676683202551
141.0,21.099251819339045,0.4250731581209502,0.011721603117067759,10.820266419988386,0.6046772131300463
142.0,21.10309415937226,0.42527067328325036,0.011716884971946055,10.819733056112913,0.6046846476971808
143.0,21.10693629880441,0.4254682160303534,0.01171216774777133,10.819199679742317,0.6046947600374161
144.0,21.110778237105112,0.42566578628122015,0.011707451429704035,10.818666290942192,0.6047043494548378
145.0,21.114619973743668,0.4258633839547438,0.011702736005430174,10.81813288977776,0.6047142261795598
146.0,21.11846150818909,0.4260610089697585,0.011698021501872737,10.817599476315305,0.6047240383322056
147.0,21.12230283991009,0.42625866124502104,0.01169330792206842,10.817066050621232,0.6047340878243963
148.0,21.126143968375107,0.42645634069923205,0.01168859526716789,10.816532612762,0.6047453213596373
149.0,21.129984893052253,0.42665404725101924,0.011683883538302626,10.815999162804124,0.6047573411905466
150.0,21.133825613409375,0.4268517808189482,0.011679172736583514,10.815465700814176,0.6047695608827173
151.0,21.137666128914017,0.42704954132151757,0.011674462863099396,10.814932226858788,0.6047814198391248
152.0,21.14150643903342,0.42724732867715415,0.011669753916050948,10.814398741004677,0.6047912765172203
153.0,21.14534654323455,0.42744514280423385,0.011665045893119183,10.813865243318633,0.6048004246690507
154.0,21.149186440984067,0.4276429836210487,0.011660338795357775,10.813331733867509,0.6048095783304671
155.0,21.153026131748348,0.4278408510458422,0.011655632597686344,10.812798212717441,0.6048189871849495
156.0,21.156865614993478,0.4280387449967788,0.011650927315204068,10.81226467993505,0.6048288454168637
157.0,21.16070489018524,0.42823666539196886,0.011646222958831975,10.811731135587376,0.6048383026028935
158.0,21.164543956789142,0.4284346121494474,0.011641519528899365,10.811197579741517,0.6048467226411093
159.0,21.168382814270398,0.4286325851871969,0.011636817026393043,10.810664012464628,0.6048551466113407
160.0,21.172221462093923,0.4288305844231226,0.011632115452273734,10.810130433823922,0.6048636550941584
161.0,21.17605989972435,0.42902860977507706,0.011627414807474727,10.809596843886672,0.6048724803834913
162.0,21.17989812662603,0.4292266611608362,0.0116227150918184,10.80906324272018,0.6048812792544151
163.0,21.183736142262998,0.4294247384981234,0.01161801630572463,10.808529630391792,0.6048899893602686
164.0,21.18757394609904,0.42962284170458825,0.011613318449566036,10.807996006968914,0.6048985895888338
165.0,21.191411537597624,0.42982097069782393,0.011608621523393014,10.807462372519003,0.6049070536939092
166.0,21.19524891622193,0.430019125395354,0.011603925525259974,10.806928727109584,0.604915813878286
167.0,21.19908608143488,0.43021730571464123,0.01159923045608635,10.806395070808236,0.6049249673878636
168.0,21.202923032699076,0.4304155115730867,0.011594536316761465,10.805861403682599,0.6049349294691174
169.0,21.206759769476843,0.43061374288802434,0.01158984310814342,10.805327725800367,0.6049449513265143
170.0,21.21059629123024,0.4308119995767259,0.011585150829842704,10.804794037229305,0.6049546542854272
171.0,21.214432597421006,0.43101028155640336,0.011580459481094589,10.804260338037244,0.6049644139171634
172.0,21.218268687510616,0.43120858874419926,0.011575769062714458,10.80372662829207,0.6049742040247442
173.0,21.222104560960258,0.4314069210571975,0.011571079575485876,10.803192908061733,0.6049837203557896
174.0,21.225940217230832,0.4316052784124215,0.011566391020159633,10.802659177414236,0.60499328286576
175.0,21.229775655782955,0.43180366072682747,0.011561703397453268,10.802125436417645,0.6050032296295034
176.0,21.23361087607696,0.4320020679173095,0.011557016708050304,10.801591685140082,0.6050132894845086
177.0,21.237445877572895,0.4322004999007067,0.011552330952599794,10.801057923649722,0.6050235544292799
178.0,21.241280659730517,0.4323989565937867,0.011547646131715826,10.800524152014807,0.6050340222175618
179.0,21.245115222009325,0.4325974379132564,0.011542962245977171,10.799990370303634,0.6050444206944553
180.0,21.2489495638685,0.4327959437757684,0.011538279295926929,10.799456578584556,0.6050546437527234
181.0,21.252783684766975,0.4329944740979054,0.011533597282072277,10.798922776925988,0.6050649095205448
182.0,21.256617584163372,0.4331930287961964,0.011528916204884289,10.7983889653964,0.6050745188940181
183.0,21.26045126151606,0.43339160778709873,0.01152423606479779,10.797855144064323,0.6050828642268583
184.0,21.264284716283104,0.433590210987018,0.011519556849388367,10.797321312997633,0.6050944661272885
185.0,21.268117947922292,0.4337888383122957,0.011514878475229844,10.79678747225994,0.6051051932111752
186.0,21.27195095589114,0.4339874896792093,0.01151020102877579,10.796253621919949,0.6051152403803253
187.0,21.275783739646865,0.43418616500398044,0.01150552451046772,10.795719762046428,0.6051243830829711
188.0,21.279616298646417,0.43438486420276784,0.01150084892072453,10.795185892708206,0.6051336498758896
189.0,21.283448632346463,0.43458358719166706,0.01149617425994217,10.794652013974167,0.6051432667090427
190.0,21.287280740203393,0.4347823338867154,0.011491500525911786,10.79411812591325,0.6051528713740648
191.0,21.291112621673317,0.4349811042038952,0.011486827530044597,10.793584228593982,0.605162609830539
192.0,21.29494427621207,0.4351798980591199,0.011482155454908622,10.793050322085445,0.6051723820348723
193.0,21.298775703275208,0.4353787153682496,0.011477484301049745,10.792516406456786,0.6051820537875131
