k,PSNR,SSIM,mse,Log-Gradient,Angle
0.0,20.5564274465075,0.3975745340923567,0.0,10.895221187055961,0.6027865362429313
1.0,20.559625004966477,0.397732087257692,0.010058862258663794,10.894778884994722,0.6031951725133937
2.0,20.56345723602325,0.3979231417103351,0.012227574385938392,10.894252270793293,0.6032149074272176
3.0,20.567320312758504,0.39811593956474384,0.012362822130030671,10.893721581444005,0.6032304630699377
4.0,20.57118629334555,0.39830894338134265,0.01237523973974061,10.893190453405085,0.6032416367365109
5.0,20.575052916474394,0.39850202672365365,0.012374953988519932,10.892659188776749,0.6032524751269935
6.0,20.57891987125319,0.39869517206044874,0.012372372476525128,10.892127833734992,0.6032633916329854
7.0,20.58278709645974,0.39888837580887054,0.01236920422650565,10.891596398646191,0.6032743113130562
8.0,20.58665457554278,0.3990816369079673,0.012365816772776017,10.891064887189279,0.603285212361609
9.0,20.590522302874952,0.39927495495291065,0.01236233201506555,10.89053330091172,0.6032961439088969
10.0,20.594390275689086,0.39946832973514157,0.012358802998058402,10.890001640531953,0.603307139731068
11.0,20.598258492909586,0.39966176116249486,0.012355243417041804,10.889469906554451,0.6033181878051598
12.0,20.60212695384567,0.3998552491625868,0.012351654417767309,10.888938099346454,0.603329285148713
13.0,20.60599565788892,0.4000487936688346,0.012348046435862884,10.888406219153165,0.6033404022107319
14.0,20.609864604571193,0.4002423946199625,0.012344430002020535,10.887874266102568,0.6033515589903843
15.0,20.6137337934019,0.4004360519551977,0.012340807735110088,10.887342240286126,0.603362798573139
16.0,20.61760322396472,0.4006297656185109,0.012337181850848407,10.88681014177663,0.6033740174974707
17.0,20.62147289586481,0.4008235355549336,0.012333555026764075,10.886277970636637,0.6033851805165334
18.0,20.625342808636468,0.4010173617046379,0.012329924800515597,10.885745726951143,0.6033964034199009
19.0,20.62921296187411,0.40121124401210223,0.012326294212100157,10.885213410764571,0.6034075795430119
20.0,20.633083355192525,0.401405182423211,0.012322663631567586,10.88468102211685,0.603418818014163
21.0,20.636953988207747,0.4015991768839444,0.012319032718557062,10.884148561054355,0.6034300040276547
22.0,20.640824860536604,0.40179322734032086,0.01231540163319321,10.883616027618846,0.6034412187431036
23.0,20.644695971796367,0.40198733373834666,0.012311770623032969,10.883083421845004,0.6034524405837541
24.0,20.64856732160451,0.4021814960240165,0.012308139185833542,10.88255074376846,0.6034636321216368
25.0,20.652438909578514,0.40237571414326273,0.012304507911632803,10.882017993421886,0.6034748190766305
26.0,20.656310735335694,0.4025699880419593,0.012300876318064473,10.881485170841351,0.6034859486523293
27.0,20.660182798493175,0.4027643176659122,0.012297243247223125,10.88095227606784,0.6034970363278005
28.0,20.66405509866773,0.4029587029608366,0.012293609227638273,10.880419309137798,0.6035080500155154
29.0,20.66792763547579,0.40315314387235895,0.01228997533335497,10.87988627008208,0.6035191035732131
30.0,20.67180040853334,0.40334764034601234,0.012286341504766856,10.87935315893162,0.6035302621091946
31.0,20.67567341745591,0.40354219232723626,0.01228270725371445,10.878819975719079,0.6035414359755957
32.0,20.679546661858573,0.40373679976136306,0.012279073129362685,10.878286720474863,0.6035525584336242
33.0,20.683420141355878,0.40393146259362256,0.012275439091995733,10.877753393228039,0.6035636070353524
34.0,20.68729385556185,0.4041261807691436,0.012271804561011594,10.877219994001964,0.6035745870650345
35.0,20.691167804090007,0.4043209542329394,0.012268169608061428,10.87668652283145,0.6035855746536211
36.0,20.695041986553292,0.40451578292992346,0.01226453431528821,10.876152979749595,0.6035965054751368
37.0,20.69891640256412,0.40471066680489703,0.01226089835658739,10.875619364791076,0.6036073341614357
38.0,20.70279105173435,0.40490560580254903,0.012257261777173152,10.875085677989091,0.6036180700742825
39.0,20.706665933675268,0.40510059986746394,0.012253625282171002,10.874551919373687,0.6036287475939226
40.0,20.71054104799758,0.40529564894410514,0.012249988871019737,10.874018088974953,0.6036393379784779
41.0,20.714416394311428,0.40549075297683523,0.012246352542955518,10.873484186823026,0.6036498497404401
42.0,20.71829197222636,0.40568591190990005,0.012242716297044999,10.872950212948094,0.6036602298261674
43.0,20.722167781351345,0.40588112568742885,0.012239080132214208,10.872416167380397,0.603670511375015
44.0,20.726043821294766,0.40607639425344305,0.012235444047273055,10.87188205015024,0.6036809458789713
45.0,20.72992009166441,0.40627171755185404,0.012231808040936107,10.871347861287985,0.6036913235175133
46.0,20.733796592067474,0.4064670955264557,0.012228172111840201,10.87081360082406,0.6037015858360093
47.0,20.73767332211057,0.4066625281209278,0.012224536258559106,10.870279268788961,0.6037120091898711
48.0,20.741550281399718,0.4068580152788373,0.012220900454448945,10.869744865212722,0.6037222656393461
49.0,20.74542746954032,0.40705355694364326,0.01221726443500167,10.869210390120857,0.6037334607517877
50.0,20.7493048861372,0.4072491530586853,0.012213628480362967,10.868675843544073,0.6037454154234775
51.0,20.753182530794568,0.4074448035671881,0.012209992589274216,10.868141225513147,0.6037571401315699
52.0,20.757060403116053,0.4076405084122709,0.012206356760464934,10.867606536058926,0.6037686385430922
53.0,20.760938502704672,0.4078362675369302,0.012202720970074948,10.867071775211942,0.6037799649170548
54.0,20.764816829162843,0.4080320808840505,0.012199085081584656,10.86653694300048,0.6037912578800017
55.0,20.76869538209238,0.40822794839640936,0.012195449152993424,10.86600203945456,0.6038027063912247
56.0,20.772574161094482,0.4084238700166612,0.012191813186709735,10.865467064604326,0.6038142032724297
57.0,20.77645316576977,0.40861984568735044,0.012188177274692553,10.864932018481024,0.6038257564887958
58.0,20.78033239571824,0.4088158753509081,0.012184541416011,10.864396901115974,0.6038374597423203
59.0,20.784211850539293,0.4090119589496484,0.01218090553288059,10.863861712540047,0.6038491298386945
60.0,20.788091529831718,0.4092080964257756,0.012177269566058389,10.863326452784056,0.6038605571925789
61.0,20.7919714331937,0.4094042877213761,0.012173633393646634,10.862791121881925,0.6038715990464733
62.0,20.795851560222836,0.40960053277842245,0.01216999718787553,10.862255719865773,0.6038823974441173
63.0,20.799731910516105,0.4097968315387733,0.012166361042571553,10.861720246767236,0.6038929937566304
64.0,20.803612483669873,0.4099931839441755,0.012162724957397614,10.86118470261803,0.6039035349218937
65.0,20.80749327927991,0.4101895899362564,0.012159088932026748,10.860649087449943,0.6039140307813253
66.0,20.811374296941377,0.4103860494565359,0.012155452854884887,10.860113401295582,0.6039244082384245
67.0,20.815255536248827,0.4105825624464132,0.012151816799505383,10.859577644187127,0.6039347270583729
68.0,20.819136996796207,0.410779128847177,0.012148180806772458,10.859041816156566,0.6039449634521973
69.0,20.82301867817684,0.4109757485999988,0.012144544876504475,10.858505917235973,0.6039551624762718
70.0,20.826900579983466,0.41117242164593715,0.01214090900853022,10.857969947457496,0.6039657107930992
71.0,20.830782701808197,0.4113691479259387,0.012137273202689477,10.857433906853366,0.6039767757404602
72.0,20.834665043242534,0.41156592738082837,0.012133637458833509,10.856897795455893,0.603988426160944
73.0,20.838547603877387,0.4117627599513263,0.012130001776825453,10.856361613297471,0.6039982563703099
74.0,20.842430383303036,0.4119596455780314,0.012126366156540799,10.855825360410568,0.6040079106218202
75.0,20.846313381109155,0.4121565842014279,0.01212273059786765,10.855289036827742,0.6040178262073731
76.0,20.85019659688481,0.41235357576189013,0.012119095100707073,10.854752642581623,0.6040280020178602
77.0,20.854080030218466,0.41255062019967587,0.012115459664973297,10.854216177704929,0.6040383303762206
78.0,20.857963680697935,0.41274771745492617,0.012111824290593936,10.853679642230455,0.6040469606598861
79.0,20.861847547910482,0.41294486746767056,0.012108188977510134,10.853143036191078,0.6040557733743704
80.0,20.865731631442685,0.41314207017782073,0.012104553725676708,10.852606359619758,0.6040658384815202
81.0,20.86961593088056,0.4133393255251779,0.012100918535062259,10.852069612549535,0.6040754519891555
82.0,20.873500445809505,0.41353663344942365,0.0120972834056491,10.851532795013531,0.6040847599289654
83.0,20.877385175814283,0.41373399389013327,0.01209364833743351,10.850995907044949,0.6040937229908644
84.0,20.88127012047905,0.4139314067867585,0.012090013330425633,10.850458948677074,0.6041025109507655
85.0,20.88515527938736,0.4141288720786414,0.012086378384649437,10.849921919943277,0.6041115693608232
86.0,20.889040652122134,0.41432638970500896,0.012082743500142766,10.849384820877003,0.6041214270708942
87.0,20.892926238265677,0.4145239596049704,0.01207910867695726,10.84884765151178,0.6041311562787252
88.0,20.896812037399712,0.4147215817175276,0.012075473915158293,10.84831041188123,0.6041406539791537
89.0,20.900698049105294,0.4149192559815596,0.012071839214824914,10.847773102019039,0.6041500275025228
90.0,20.9045842729629,0.415116982335834,0.012068204576049705,10.84723572195899,0.6041594528851087
91.0,20.908470708552365,0.41531476071900847,0.012064569998938766,10.84669827173494,0.6041691810407618
92.0,20.91235735545293,0.4155125910696187,0.012060935483611519,10.84616075138083,0.6041793027735094
93.0,20.916244213243193,0.4157104733260919,0.012057301030200605,10.845623160930689,0.6041897256853189
94.0,20.920131281501163,0.4159084074267351,0.012053666638851736,10.845085500418618,0.6042000561013791
95.0,20.9240185598042,0.4161063933097428,0.012050032309723577,10.84454776987881,0.6042110747562183
96.0,20.927906047729063,0.41630443091319974,0.012046398042987572,10.844009969345535,0.6042219940424273
97.0,20.931793744851888,0.4165025201750691,0.012042763838827734,10.84347209885315,0.6042326520336907
98.0,20.93568165074819,0.4167006610332023,0.012039129688897747,10.842934158436085,0.604243102262164
99.0,20.939569764992868,0.41689885342533745,0.012035495592883022,10.84239614812886,0.6042532858913929
100.0,20.94345808716019,0.41709709728909766,0.012031861551129288,10.841858067966069,0.6042633121163851
101.0,20.947346616823815,0.41729539256198905,0.012028227564007617,10.841319917982391,0.6042732097957476
102.0,20.951235353556775,0.4174937391814065,0.012024593631913934,10.840781698212588,0.6042832005652504
103.0,20.955124296931483,0.41769213708462855,0.012020959755013905,10.840243408691503,0.6042937375932649
104.0,20.959013446519727,0.41789058620881975,0.012017325930438416,10.839705049454079,0.6043044049208265
105.0,20.96290280189266,0.4180890864910269,0.012013692158697293,10.839166620535332,0.6043148855047035
106.0,20.96679236262085,0.41828763786818673,0.012010058440326545,10.838628121970366,0.604325511336227
107.0,20.9706821282742,0.41848624027712206,0.012006424775888137,10.838089553794369,0.6043360596316477
108.0,20.974572098422016,0.41868489365453604,0.01200279116582164,10.8375509160426,0.6043464629888712
109.0,20.978462272632964,0.4188835979370249,0.011999157608438966,10.837012208750421,0.6043571059877236
110.0,20.982352650475104,0.41908235306105923,0.011995524104496173,10.83647343195327,0.6043678732790433
111.0,20.986243231515857,0.41928115896300494,0.011991890654775529,10.835934585686664,0.6043787194188543
112.0,20.99013401532202,0.4194800155791086,0.011988257260084453,10.835395669986204,0.6043899259891022
113.0,20.994025001459768,0.4196789228455078,0.011984623921254454,10.834856684887571,0.6044011930347931
114.0,20.997916189494653,0.4198778806982178,0.01198099063864972,10.83431763042652,0.6044123926743855
115.0,21.001807578991595,0.42007688907314233,0.011977357412747839,10.833778506638879,0.6044223268052035
116.0,21.00569916951489,0.4202759479060742,0.011973724244553178,10.833239313560558,0.6044333906086347
117.0,21.009590960628223,0.420475057132687,0.011970091135088977,10.832700051227551,0.6044447759375514
118.0,21.013482951894616,0.42067421668854355,0.01196645808539577,10.832160719675933,0.6044555053926275
119.0,21.017375142876503,0.42087342650909054,0.011962825096530114,10.831621318941865,0.6044660787495323
120.0,21.021267533135656,0.4210726865296592,0.011959192169563057,10.831081849061587,0.6044766101083671
121.0,21.025160122233252,0.4212719966854705,0.0119555593055787,10.830542310071426,0.6044872240466654
122.0,21.029052909729813,0.42147135691162396,0.011951926505672747,10.830002702007787,0.6044976026171281
123.0,21.032945895185243,0.4216707671431115,0.011948293770950975,10.829463024907167,0.6045075791177671
124.0,21.03683907815882,0.42187022731480767,0.011944661102527772,10.828923278806139,0.6045171644321424
125.0,21.040732458209185,0.42206973736147096,0.011941028501524583,10.828383463741362,0.6045266863330595
126.0,21.044626034894357,0.4222692972177504,0.011937395969068532,10.827843579749581,0.6045368046313605
127.0,21.048519807771715,0.42246890681817634,0.011933763506290721,10.827303626867623,0.6045473960376346
128.0,21.052413776398016,0.4226685660971661,0.011930131114324897,10.826763605132403,0.6045572649277852
129.0,21.056307940329386,0.4228682749890234,0.011926498794305768,10.826223514580912,0.6045684360287874
130.0,21.060202299121322,0.42306803342793725,0.01192286654736762,10.825683355250234,0.6045793874817216
131.0,21.06409685232867,0.4232678413479804,0.011919234374642752,10.825143127177537,0.6045891519034949
132.0,21.06799159950567,0.42346769868311585,0.011915602277259935,10.82460283040007,0.6045988980783779
133.0,21.071886540205917,0.4236676053671892,0.011911970256342956,10.824062464955166,0.6046085770188196
134.0,21.075781673982373,0.4238675613339346,0.011908338313009139,10.823522030880248,0.6046180651099077
135.0,21.07967700038737,0.42406756651696415,0.011904706448367813,10.822981528212825,0.6046276051914776
136.0,21.08357251897261,0.42426762084978425,0.011901074663518883,10.822440956990485,0.6046369330223624
137.0,21.087468229289158,0.4244677242657888,0.011897442959551377,10.821900317250908,0.6046458034974345
138.0,21.09136413088744,0.42466787669824924,0.01189381133754197,10.821359609031855,0.6046566532981464
139.0,21.095260223317247,0.4248680780803249,0.011890179796996879,10.82081883237118,0.6046675552848826
140.0,21.099156506127756,0.425068328345064,0.011886548336547759,10.820277987306785,0.6046772133510593
141.0,21.103052978867485,0.4252686274254028,0.011882916957087663,10.819737073876663,0.6046846126011471
142.0,21.106949641084327,0.425468975254159,0.011879285659716994,10.819196092118894,0.60469511616624
143.0,21.11084649232554,0.42566937176403313,0.011875654445520648,10.818655042071633,0.6047048136695493
144.0,21.11474353213774,0.4258698168876231,0.011872023281329547,10.818113923771696,0.6047148643606916
145.0,21.118640760066913,0.4260703105574002,0.01186839218887282,10.817572737256988,0.6047248161129346
146.0,21.122538175658413,0.4262708527057317,0.01186476118081841,10.81703148256589,0.6047350374673923
147.0,21.12643577845693,0.4264714432648642,0.011861130258206749,10.816490159736865,0.604746593645278
148.0,21.130333568006556,0.42667208216693203,0.01185749942206012,10.815948768808465,0.6047588279125232
149.0,21.13423154385071,0.42687276934396134,0.011853868673380893,10.815407309819326,0.6047712506727744
150.0,21.138129705532197,0.4270735047278544,0.011850238013150225,10.814865782808166,0.6047830983613905
151.0,21.142028052593176,0.4272742882504052,0.01184660743975434,10.814324187813813,0.6047928541837818
152.0,21.14592658457516,0.4274751198432954,0.011842976950392065,10.81378252487521,0.6048021445145543
153.0,21.149825301019032,0.4276759994380912,0.011839346546010768,10.813240794031378,0.6048114546684505
154.0,21.153724201465035,0.42787692696624413,0.011835716216312828,10.812698995321083,0.6048210953297227
155.0,21.15762328545277,0.4280779023590917,0.011832085947044574,10.812157128782731,0.604831176480714
156.0,21.161522552521205,0.42827892554786057,0.011828455763250414,10.811615194455618,0.6048404702058744
157.0,21.16542200220865,0.4284799964636607,0.011824825665215564,10.811073192379121,0.6048489701964886
158.0,21.169321634052793,0.4286811150374897,0.01182119565382344,10.810531122592716,0.6048575397908215
159.0,21.17322144759068,0.42888228120023236,0.011817565729931812,10.809988985135952,0.6048662997436115
160.0,21.1771214423587,0.4290834948826543,0.011813935894371635,10.809446780048475,0.604875239689537
161.0,21.18102161789262,0.4292847560154172,0.0118103061471048,10.80890450736999,0.6048841861076143
162.0,21.184921973727562,0.42948606452906435,0.011806676488192348,10.80836216714027,0.6048929756061893
163.0,21.18882250939798,0.42968742035402147,0.011803046917416921,10.807819759399177,0.6049016817214963
164.0,21.192723224437728,0.4298888234206106,0.011799417434570001,10.807277284186654,0.6049103844587578
165.0,21.196624118379972,0.4300902736590279,0.0117957880382192,10.806734741542737,0.6049193097857498
166.0,21.200525190757283,0.43029177099936483,0.011792158729187926,10.80619213150755,0.6049290811878646
167.0,21.204426441101543,0.4304933153716006,0.011788529508269438,10.805649454121308,0.6049393072366634
168.0,21.20832786894402,0.4306949067055943,0.011784900376225918,10.805106709424305,0.6049493923886963
169.0,21.21222947381533,0.4308965449310962,0.011781271331755208,10.80456389745694,0.6049591116887046
170.0,21.216131255245436,0.431098229977744,0.0117776423747865,10.80402101825971,0.604969240651415
171.0,21.220033212763663,0.4312999617750551,0.011774013506041039,10.803478071873192,0.6049790693800712
172.0,21.223935345898695,0.4315017402524457,0.01177038472620793,10.802935058338054,0.6049886469582828
173.0,21.22783765417857,0.43170356533920823,0.011766756035943394,10.802391977695054,0.6049986978285269
174.0,21.231740137130668,0.4319054369645257,0.011763127435869937,10.801848829985037,0.6050089049617996
175.0,21.235642794281734,0.43210735505747194,0.011759498926575778,10.801305615248934,0.605019124843611
176.0,21.239545625157863,0.43230931954699786,0.01175587050861416,10.800762333527766,0.6050298135334281
177.0,21.24344862928451,0.43251133036195527,0.011752242182502821,10.800218984862648,0.6050404201707095
178.0,21.24735180618648,0.4327133874310684,0.011748613948723587,10.799675569294774,0.605050883773767
179.0,21.251255155387913,0.43291549068296226,0.01174498580772195,10.799132086865438,0.6050612873703538
180.0,21.255158676412332,0.43311764004613224,0.011741357759906737,10.798588537616013,0.6050710735719035
181.0,21.259062368782587,0.43331983544897884,0.01173772980564991,10.79804492158797,0.6050797507590181
182.0,21.262966232020894,0.4335220768197802,0.011734101945286292,10.797501238822864,0.6050914024546268
183.0,21.26687026564882,0.4337243640866997,0.01173047417911359,10.796957489362342,0.6051023334805724
184.0,21.270774469187266,0.43392669717779514,0.011726846414202035,10.796413673242748,0.6051127458718324
185.0,21.274678842156504,0.43412907602100653,0.011723218726337203,10.795869790505481,0.605122207124651
186.0,21.278583384076132,0.43433150054415964,0.011719591122836371,10.79532584119246,0.6051315603584925
187.0,21.282488094465112,0.434533970674976,0.011715963604002363,10.794781825345693,0.6051413600885972
188.0,21.28639297284176,0.4347364863410517,0.011712336170114216,10.79423774300728,0.6051511427019617
189.0,21.290298018723725,0.43493904746988593,0.0117087088214272,10.79369359421941,0.605161085966946
190.0,21.294203231628018,0.43514165398884863,0.011705081383055463,10.793149379023912,0.605171040096949
191.0,21.298108611070997,0.43534430582521,0.01170145400828892,10.792605097463147,0.6051809110516227
192.0,21.30201415656837,0.4355470029061235,0.011697826710063154,10.792060749579601,0.6051905938449826
193.0,21.30591986763518,0.4357497451586296,0.011694199488784572,10.791516335415851,0.6051998297758169
