k,PSNR,SSIM,mse,Log-Gradient,Angle
0.0,20.5564274465075,0.3975745340923567,0.0,10.895221187055961,0.6027865362429313
1.0,20.559623851473134,0.3977320304161114,0.010055234065838607,10.894779044561059,0.6031951684231732
2.0,20.56345354656952,0.39792295906998865,0.012219586400087232,10.894252779947598,0.6032148976292028
3.0,20.56731269369604,0.3981155615031718,0.012350395705711838,10.893722631728863,0.6032304407436818
4.0,20.57117335001199,0.3983083001706355,0.01235836147769526,10.893192236558246,0.6032415960535279
5.0,20.575033253999248,0.3985010485755876,0.012353624241650476,10.89266189662279,0.6032524134055715
6.0,20.5788920946682,0.3986937891328164,0.012346594323063372,10.892131658168642,0.6032633045711887
7.0,20.582749810721303,0.39888651820686016,0.012338981454279896,10.891601531628421,0.6032741951765229
8.0,20.58660638553906,0.3990792346847123,0.012331153401909357,10.891071520745733,0.6032850638914845
9.0,20.5904618134289,0.3992719381097651,0.012323232154292384,10.89054162713197,0.6032959602997773
10.0,20.594316091560568,0.399464628221909,0.012315270802810615,10.890011851569096,0.6033069154611851
11.0,20.598169218796865,0.3996573048776096,0.012307283055901272,10.889482194624778,0.603317918112063
12.0,20.602021194386847,0.39984996795327477,0.012299270064198273,10.888952656729147,0.6033289662710747
13.0,20.605872017663227,0.4000426173312948,0.012291242276058495,10.888423238190063,0.6033400300347557
14.0,20.609721688100272,0.4002352528995252,0.01228321024077393,10.887893939197976,0.6033511256910741
15.0,20.61357020515111,0.40042787454650536,0.012275176576457013,10.88736475990667,0.6033623025738025
16.0,20.61741756834442,0.4006204821656772,0.012267143507229206,10.886835700451085,0.6033734600286655
17.0,20.6212637772316,0.40081307565169966,0.012259113710247188,10.886306760955812,0.6033845533157518
18.0,20.625108831294444,0.4010056548945551,0.012251084718267911,10.885777941567671,0.6033957099731353
19.0,20.628952730076193,0.40119821978868825,0.012243059577844382,10.885249242392778,0.6034068148678404
20.0,20.632795473141677,0.40139077023012654,0.01223503865801064,10.884720663532619,0.6034179624822477
21.0,20.636637060058245,0.40158330611514953,0.012227021615386425,10.884192205094998,0.603429073607105
22.0,20.640477490395273,0.40177582734024514,0.01221900861061035,10.883663867182927,0.6034401948701511
23.0,20.644316763723868,0.40196833380205704,0.01221099988920488,10.883135649892223,0.6034513221712573
24.0,20.648154879616577,0.4021608253973757,0.012202994947443747,10.882607553319504,0.6034624225949267
25.0,20.651991837647195,0.40235330202311,0.012194994375528515,10.882079577558288,0.603473510894699
26.0,20.655827637390665,0.40254576357627014,0.012186997685912557,10.881551722705368,0.6034845362198532
27.0,20.65966227842295,0.40273820995396364,0.012179003707365644,10.881023988862346,0.6034955275911575
28.0,20.66349576032095,0.402930641053375,0.012171012990171351,10.880496376126041,0.603506429087251
29.0,20.667328082662454,0.40312305677177984,0.012163026600253026,10.879968884587601,0.6035173652142939
30.0,20.671159245026097,0.4033154570065119,0.012155044471197666,10.879441514338124,0.603528383974772
31.0,20.674989246991334,0.40350784165499,0.012147066121985526,10.87891426547027,0.6035394379437972
32.0,20.67881808813839,0.403700210614694,0.012139092097708177,10.87838713807431,0.603550440567142
33.0,20.682645768048257,0.40389256378316896,0.012131122356064368,10.877860132239062,0.6035613753387036
34.0,20.68647228630269,0.40408490105802447,0.01212315630920717,10.877333248047508,0.6035722287762878
35.0,20.690297642484133,0.40427722233693486,0.012115194034490457,10.876806485593878,0.6035830726673475
36.0,20.694121836175817,0.4044695275176309,0.012107235603236781,10.876279844970636,0.6035938816054903
37.0,20.697944866961656,0.40466181649791183,0.012099280684601766,10.875753326271655,0.6036045817487835
38.0,20.701766734426286,0.40485408917563287,0.012091329347331018,10.875226929589095,0.6036152005780481
39.0,20.70558743815507,0.40504634544871054,0.012083382283884444,10.874700655011894,0.6036257374601074
40.0,20.70940697773404,0.4052385852151166,0.012075439492429127,10.874174502628886,0.6036361970349221
41.0,20.71322535274994,0.405430808372893,0.012067500970930385,10.873648472528814,0.6036465839835159
42.0,20.717042562790205,0.40562301482013235,0.012059566717184961,10.873122564800331,0.603656852578525
43.0,20.72085860744297,0.4058152044549906,0.012051636728849924,10.872596779532005,0.6036669759866665
44.0,20.72467348629705,0.40600737717567625,0.012043711003467373,10.87207111681232,0.6036772166726624
45.0,20.728487198941956,0.40619953288047084,0.01203578953848521,10.871545576729677,0.603687427641038
46.0,20.73229974496787,0.4063916714677041,0.012027872331274765,10.871020159372405,0.6036975654219208
47.0,20.7361111239657,0.4065837928357698,0.012019959379145649,10.870494864828746,0.6037077886090848
48.0,20.739921335527015,0.4067758968831178,0.01201205065301154,10.869969693186421,0.6037178750736137
49.0,20.74373037924407,0.40696798350826774,0.012004145885446814,10.869444644528352,0.6037280451794097
50.0,20.747538254709813,0.40716005260978577,0.011996245358129317,10.86891971894257,0.6037399128099312
51.0,20.75134496151787,0.40735210408630734,0.011988349068543278,10.868394916517035,0.6037515340110441
52.0,20.75515049926257,0.4075441378365278,0.011980457014162456,10.867870237339636,0.6037629272721621
53.0,20.75895486753891,0.4077361537592031,0.011972569166918703,10.867345681497753,0.6037741032952312
54.0,20.762758065942602,0.4079281517531435,0.011964685392746727,10.866821249076473,0.6037851856311239
55.0,20.76656009407001,0.408120131717227,0.011956805741019054,10.86629694016236,0.6037962501060619
56.0,20.770360951518207,0.4083120935503933,0.011948930223784921,10.865772754842082,0.6038075479292164
57.0,20.774160637884943,0.4085040371516382,0.011941058927478827,10.865248693203199,0.6038188056166088
58.0,20.77795915276866,0.40869596242002443,0.01193319184992282,10.86472475533321,0.6038301730151558
59.0,20.781756495768494,0.4088878692546745,0.011925328876204924,10.864200941318776,0.6038416447165488
60.0,20.785552666484264,0.40907975755477155,0.011917469996760676,10.863677251247005,0.6038530030453475
61.0,20.78934766451649,0.40927162721956084,0.01190961506602239,10.863153685207505,0.6038640488499937
62.0,20.793141489466382,0.40946347814835704,0.011901764281033907,10.862630243287867,0.6038747753894372
63.0,20.796934140935825,0.409655310240527,0.011893917715740984,10.862106925575171,0.6038852263838878
64.0,20.800725618527416,0.4098471233955083,0.011886075368571091,10.861583732156422,0.6038955502742408
65.0,20.80451592184444,0.4100389175127986,0.011878237237963198,10.861060663118565,0.6039058592924701
66.0,20.80830505049088,0.4102306924919581,0.011870403174033399,10.860537718549438,0.6039160727592194
67.0,20.8120930040714,0.41042244823261664,0.011862573320033008,10.860014898535855,0.6039261787906242
68.0,20.815879782191367,0.4106141846344597,0.011854747681739861,10.85949220316451,0.6039362336801176
69.0,20.819665384456844,0.4108059015972418,0.011846926257744233,10.85896963252203,0.6039461978067412
70.0,20.82344981047459,0.41099759902078065,0.011839109046648512,10.858447186694974,0.6039561741570593
71.0,20.827233059852052,0.4111892768049586,0.011831296047067489,10.857924865769833,0.6039664734779688
72.0,20.831015132197383,0.41138093484972166,0.011823487257629023,10.857402669833029,0.6039773010264339
73.0,20.83479602711943,0.4115725730550847,0.011815682676974415,10.856880598970914,0.603988624345055
74.0,20.838575744227747,0.41176419132112424,0.011807882303758835,10.856358653269776,0.6039981533287674
75.0,20.842354283132565,0.4119557895479801,0.011800086136651627,10.855836832815829,0.6040075445644917
76.0,20.84613164344484,0.4121473676358652,0.011792294174336642,10.85531513769522,0.604017173182235
77.0,20.8499078247762,0.41233892548505313,0.011784506415512444,10.85479356799403,0.6040270381785132
78.0,20.853682826738993,0.41253046299588253,0.01177672285889245,10.854272123798262,0.6040370945010239
79.0,20.85745664894627,0.41272198006876515,0.011768943503205223,10.853750805193862,0.6040458104624612
80.0,20.861229291011764,0.41291347660417244,0.01176116834719445,10.853229612266695,0.6040538778076386
81.0,20.865000752549932,0.4131049525026434,0.011753397389619094,10.852708545102564,0.604063775353466
82.0,20.86877103317592,0.4132964076647889,0.01174563062925349,10.852187603787197,0.6040731820270675
83.0,20.872540132505584,0.4134878419912835,0.011737868064887275,10.851666788406257,0.6040822795935878
84.0,20.876308050155473,0.4136792553828685,0.011730109695325504,10.851146099045334,0.6040910712390849
85.0,20.880074785742856,0.41387064774035714,0.011722355519388567,10.850625535789945,0.6040996260673008
86.0,20.88384033888569,0.41406201896462713,0.011714605535912246,10.85010509872554,0.6041080275042657
87.0,20.88760470920265,0.41425336895662784,0.011706859743747513,10.849584787937502,0.6041174988395269
88.0,20.89136789631311,0.4144446976173704,0.011699118141760608,10.849064603511133,0.6041270388040408
89.0,20.89512989983715,0.4146360048479411,0.011691380728832872,10.848544545531672,0.6041363046631621
90.0,20.89889071939556,0.4148272905494945,0.011683647503860702,10.848024614084283,0.6041454125093448
91.0,20.902650354609854,0.4150185546232524,0.011675918465755365,10.847504809254064,0.6041544963910547
92.0,20.90640880510221,0.41520979697050464,0.011668193613442958,10.846985131126033,0.6041636754747705
93.0,20.910166070495553,0.41540101749261577,0.011660472945864175,10.846465579785143,0.6041731655599442
94.0,20.91392215041352,0.4155922160910162,0.011652756461974228,10.845946155316275,0.6041831552297828
95.0,20.91767704448042,0.41578339266720615,0.011645044160742711,10.845426857804233,0.6041931817384659
96.0,20.921430752321317,0.41597454712275894,0.011637336041153312,10.844907687333752,0.6042033552175249
97.0,20.92518327356195,0.4161656793593192,0.011629632102203724,10.844388643989495,0.6042139762650726
98.0,20.928934607828786,0.41635678927859404,0.011621932342905487,10.84386972785605,0.6042244370131332
99.0,20.932684754749012,0.41654787678236876,0.01161423675548978,10.843350939017935,0.6042346700913678
100.0,20.936433713950507,0.41673894177250603,0.01160654533693003,10.842832277559586,0.6042446941479152
101.0,20.940181485061878,0.41692998415092286,0.011598858086406282,10.84231374356537,0.6042544707526044
102.0,20.943928067712445,0.4171210038196233,0.011591175003124583,10.841795337119576,0.6042641239301815
103.0,20.947673461532226,0.4173120006806789,0.011583496086316626,10.841277058306424,0.6042736555598687
104.0,20.951417666151976,0.4175029746362267,0.011575821335239047,10.840758907210052,0.6042832638679257
105.0,20.95516068120315,0.41769392558848645,0.011568150746343426,10.840240883914543,0.6042933872940245
106.0,20.958902506317926,0.41788485343974496,0.011560484318308188,10.839722988503897,0.6043036546080337
107.0,20.96264314112919,0.4180757580923568,0.011552822050507212,10.83920522106205,0.6043137232106098
108.0,20.96638258527055,0.4182666394487627,0.011545163942340363,10.83868758167285,0.6043239257874908
109.0,20.970120838376335,0.41845749741146493,0.011537509993233096,10.838170070420079,0.604334078209312
110.0,20.973857900081583,0.4186483318830459,0.011529860200647222,10.83765268738744,0.6043440893460499
111.0,20.97759377002206,0.4188391427661546,0.011522214563760525,10.837135432658572,0.604354189374414
112.0,20.981328447834247,0.4190299299635227,0.011514573082192312,10.836618306317028,0.6043645032289203
113.0,20.985061933155325,0.4192206933779509,0.011506935755587068,10.83610130844629,0.6043748763100384
114.0,20.98879422562323,0.4194114329123116,0.011499302583613305,10.835584439129754,0.6043854501196012
115.0,20.992525324876592,0.41960214846956106,0.01149167356596257,10.835067698450745,0.6043962466169283
116.0,20.996255230554777,0.4197928399527195,0.011484048702057856,10.834551086492501,0.6044070683828672
117.0,20.999983942297856,0.4199835072648896,0.011476427991103646,10.834034603338175,0.6044173298306893
118.0,21.00371145974663,0.4201741503092446,0.011468811432954345,10.833518249070842,0.6044263812295996
119.0,21.007437782542638,0.4203647689890389,0.011461199027481685,10.833002023773496,0.6044379661174514
120.0,21.011162910328103,0.4205553632075943,0.011453590774573391,10.832485927529058,0.6044485423496041
121.0,21.014886842746016,0.42074593286831635,0.011445986674131698,10.83196996042037,0.6044586758843211
122.0,21.018609579440056,0.4209364778746796,0.011438386726071843,10.831454122530195,0.6044687782674697
123.0,21.02233112005465,0.42112699813024096,0.0114307909303208,10.830938413941219,0.6044787937503872
124.0,21.026051464234925,0.42131749353863407,0.011423199286815598,10.830422834736051,0.6044889220840649
125.0,21.029770611626766,0.4215079640035617,0.011415611795501917,10.829907384997222,0.6044987674899657
126.0,21.03348856187675,0.4216984094288109,0.0114080284563327,10.829392064807184,0.6045082425023917
127.0,21.037205314632207,0.4218888297182441,0.011400449269266477,10.828876874248309,0.6045173527365993
128.0,21.04092086954118,0.4220792247757969,0.011392874234266012,10.828361813402894,0.6045264075475189
129.0,21.044635226252424,0.4222695945054886,0.011385303351296781,10.827846882353157,0.6045360179128713
130.0,21.048348384415462,0.4224599388114179,0.011377736620325409,10.827332081181238,0.6045460827215904
131.0,21.052060343680502,0.4226502575977477,0.011370174041318303,10.826817409969195,0.6045556277315879
132.0,21.055771103698508,0.4228405507687332,0.011362615614240044,10.826302868799011,0.6045661423886216
133.0,21.059480664121168,0.42303081822870325,0.011355061339051948,10.825788457752592,0.6045767251333914
134.0,21.063189024600884,0.4232210598820694,0.011347511215710622,10.82527417691176,0.604586098042628
135.0,21.066896184790807,0.42341127563330944,0.011339965244166417,10.82476002635826,0.6045953394766151
136.0,21.0706021443448,0.4236014653869944,0.011332423424362099,10.824246006173762,0.6046045697885444
137.0,21.07430690291748,0.4237916290477677,0.011324885756231277,10.823732116439851,0.6046136432698809
138.0,21.078010460164165,0.4239817665203529,0.011317352239697077,10.823218357238039,0.6046226511926284
139.0,21.08171281574094,0.42417187770955667,0.01130982287467067,10.822704728649754,0.6046316308058501
140.0,21.08541396930459,0.42436196252025615,0.01130229766104995,10.822191230756344,0.6046402451085893
141.0,21.08911392051265,0.42455202085741844,0.011294776598718049,10.821677863639083,0.6046483879064432
142.0,21.092812669023377,0.4247420526260887,0.011287259685312703,10.821164627379147,0.6046599710285879
143.0,21.096510214495773,0.4249320577313908,0.011279746918891758,10.820651522057624,0.6046697250171158
144.0,21.10020655658957,0.42512203607852445,0.011272238299366669,10.82013854775551,0.6046788089850798
145.0,21.103901694965217,0.4253119875727835,0.011264733820779983,10.819625704553506,0.6046858058750707
146.0,21.107595629283928,0.42550191211952665,0.0112572334475954,10.819112992530956,0.6046955542761546
147.0,21.111288359207627,0.42569180962421194,0.01124973721790427,10.818600411768555,0.6047048282411568
148.0,21.114979884398977,0.4258816799923582,0.011242245132802071,10.818087962346949,0.6047142574665012
149.0,21.118670204521393,0.4260715231295828,0.011234757192135044,10.817575644346704,0.6047236714534212
150.0,21.122359319239003,0.42626133894157814,0.011227273395729834,10.817063457848302,0.604733306329715
151.0,21.126047228216688,0.42645112733411805,0.011219793743392222,10.816551402932141,0.6047439990217821
152.0,21.129733931120064,0.4266408882130603,0.01121231823490568,10.816039479678542,0.6047554856004033
153.0,21.133419427615465,0.4268306214843465,0.011204846870030084,10.815527688167736,0.6047671684132915
154.0,21.137103717369992,0.42702032705400056,0.011197379648500295,10.815016028479876,0.6047786955650601
155.0,21.140786800051462,0.42721000482812044,0.011189916565228048,10.814504500695074,0.6047886285626712
156.0,21.144468675328447,0.4273996547129045,0.011182457618701812,10.813993104893358,0.6047973943456687
157.0,21.14814934287024,0.42758927661461604,0.011175002770014954,10.813481841153608,0.604806151430968
158.0,21.1518288023469,0.4277788704396162,0.01116755205683214,10.81297070955569,0.6048150264413638
159.0,21.15550705342919,0.4279684360943432,0.011160105479182097,10.812459710179393,0.6048242633539161
160.0,21.159184095788643,0.4281579734853181,0.011152663034744107,10.811948843104432,0.6048337279831293
161.0,21.162859929097525,0.42834748251914817,0.011145224722763861,10.81143810841044,0.6048421582418948
162.0,21.166534553028832,0.4285369631025258,0.011137790542857576,10.810927506176968,0.6048501797025798
163.0,21.170207967256314,0.4287264151422256,0.011130360494613129,10.810417036483484,0.6048582619934006
164.0,21.17388017145445,0.42891583854510945,0.01112293457705667,10.809906699409359,0.6048665420684951
165.0,21.17755116529849,0.42910523321811933,0.011115512788750118,10.809396495033852,0.6048749471860138
166.0,21.18122094846438,0.42929459906828965,0.01110809512919636,10.808886423436146,0.6048833613273032
167.0,21.184889520628857,0.42948393600273205,0.011100681597867411,10.80837648469533,0.6048916414922799
168.0,21.188556881469353,0.42967324392864964,0.011093272193583397,10.807866678890418,0.6048998537794131
169.0,21.192223030664096,0.4298625227533294,0.011085866913694961,10.807357006100332,0.6049079498731499
170.0,21.195887967892013,0.43005177238414055,0.011078465756536487,10.80684746640392,0.6049163475881582
171.0,21.1995516928328,0.43024099272854316,0.011071068721601749,10.806338059879938,0.604925059487437
172.0,21.203214205166887,0.43043018369408176,0.01106367580835248,10.805828786607062,0.604934524180437
173.0,21.20687550457545,0.4306193451883904,0.011056287016217753,10.805319646663884,0.6049440635525921
174.0,21.21053559074042,0.4308084771191798,0.011048902342385225,10.804810640128924,0.6049533044912119
175.0,21.21419446334446,0.4309975793942578,0.01104152178578564,10.804301767080624,0.6049624824266777
176.0,21.21785212207099,0.4311866519215162,0.011034145345800182,10.803793027597337,0.6049718583306039
177.0,21.221508566604168,0.4313756946089304,0.011026773021777382,10.803284421757336,0.6049809856622089
178.0,21.225163796628905,0.43156470736456937,0.011019404813032724,10.802775949638804,0.6049899539895645
179.0,21.228817811830854,0.4317536900965862,0.01101204071884827,10.802267611319845,0.6049993730069706
180.0,21.23247061189641,0.4319426427132161,0.011004680738472319,10.801759406878471,0.6050088915949426
181.0,21.23612219651273,0.43213156512279105,0.010997324871119043,10.801251336392617,0.6050184909895725
182.0,21.23977256536772,0.4323204572337285,0.010989973115968355,10.800743399940126,0.6050284826642452
183.0,21.24342171815001,0.4325093189545337,0.010982625472165785,10.800235597598759,0.6050384016348463
184.0,21.247069654549,0.4326981501937989,0.010975281938822367,10.799727929446192,0.6050482489274973
185.0,21.250716374254843,0.43288695086020446,0.010967942515014541,10.799220395560013,0.6050580219989224
186.0,21.25436187695842,0.4330757208625225,0.010960607199784398,10.798712996017727,0.6050677820929562
187.0,21.25800616235138,0.4332644601096122,0.010953275879146502,10.798205730891798,0.6050773223512415
188.0,21.261649230126103,0.4334531685104242,0.010945948641550036,10.79769860025895,0.605086416456276
189.0,21.265291079975732,0.43364184597399397,0.010938625499477979,10.797191604196438,0.605094788055651
190.0,21.26893171159415,0.43383049240945243,0.010931306452020279,10.796684742781434,0.605105769340332
191.0,21.272571124675995,0.4340191077260118,0.010923991498245668,10.796178016091018,0.6051154838234198
192.0,21.27620931891666,0.43420769183298263,0.01091668063720163,10.79567142420219,0.6051242566451849
193.0,21.279846294012277,0.4343962446397633,0.010909373775572787,10.79516496719164,0.6051329556138868
