k,PSNR,SSIM,mse,Log-Gradient,Angle
0.0,20.5564274465075,0.3975745340923567,0.0,10.895221187055961,0.6027865362429313
1.0,20.559623547217825,0.3977320154230884,0.010054277062501362,10.894779086649645,0.6031951673442987
2.0,20.56345257354636,0.3979229109020526,0.012217479855292477,10.894252914227291,0.603214895045316
3.0,20.567310684609645,0.3981154618112697,0.012347119400087554,10.893722908680466,0.6032304348563274
4.0,20.571169937467406,0.398308130586309,0.012353912409906267,10.893192706690932,0.6032415853267256
5.0,20.57502807071468,0.39850079072290573,0.012348003038745567,10.89266261044549,0.6032523971338527
6.0,20.578884773504228,0.39869342463005464,0.012339802330521484,10.892132666185605,0.6032632816220237
7.0,20.58273998468694,0.398886028666897,0.012331020203999747,10.891602884338155,0.6032741645673547
8.0,20.5865936877936,0.399078601715179,0.01232202448621639,10.891073268640568,0.6032850247706228
9.0,20.590445877282903,0.3992711433131438,0.012312937188004748,10.890543820697829,0.603295911923012
10.0,20.59429655047644,0.39946365319560645,0.012303811412173998,10.890014541285352,0.6033068563840197
11.0,20.598145706389367,0.39965613121402105,0.012294660869728833,10.889485430964148,0.6033178470667685
12.0,20.601993344423526,0.39984857723985484,0.012285486711684829,10.888956490157582,0.6033288823271865
13.0,20.60583946406485,0.4000409911506108,0.012276299388854712,10.888427719166652,0.6033399320195759
14.0,20.60968406494123,0.4002333728293199,0.01226710945453783,10.887899118174872,0.6033510115808745
15.0,20.61352714665986,0.40042572215975997,0.01225791952574094,10.88737068732902,0.6033621719639298
16.0,20.61736870890387,0.4006180390306741,0.012248731827899203,10.886842426756957,0.6033733132445709
17.0,20.62120875137954,0.4008103233320832,0.012239549037166213,10.886314336576138,0.6033843883256836
18.0,20.625047273723954,0.40100257494938846,0.012230368684095794,10.885786416926164,0.6033955275342965
19.0,20.628884275636036,0.40119479377251777,0.012221193816069289,10.885258667905862,0.6034066136220242
20.0,20.632719756836728,0.4013869796930439,0.012212024800947493,10.884731089609378,0.6034177373749369
21.0,20.636553717049864,0.40157913260284744,0.012202861293646882,10.884203682137098,0.6034288289326102
22.0,20.640386156001753,0.4017712523940764,0.012193703454037485,10.883676445584555,0.6034399256821279
23.0,20.64421707342079,0.4019633389591055,0.012184551526199862,10.883149380040022,0.6034510278903235
24.0,20.648046469037244,0.4021553921905088,0.012175405005111344,10.882622485592504,0.6034621051576264
25.0,20.651874342583028,0.40234741198103857,0.012166264480113747,10.882095762327852,0.6034731668633149
26.0,20.65570069379159,0.4025393982236094,0.012157129461386263,10.881569210335112,0.6034841650232993
27.0,20.659525522397804,0.4027313508112938,0.012147998773276285,10.881042829708104,0.6034951317090127
28.0,20.663348828137913,0.4029232696373093,0.012138872970910696,10.880516620535763,0.6035060052792436
29.0,20.66717061074941,0.40311515459500935,0.012129753117166863,10.8799905829013,0.6035169082149748
30.0,20.67099086997104,0.40330700557788285,0.012120639142931556,10.879464716887828,0.6035278905031826
31.0,20.67480960554277,0.4034988224795483,0.012111530568167847,10.878939022579935,0.6035389128261891
32.0,20.67862681720575,0.4036906051937564,0.012102427935990702,10.878413500059773,0.6035498840882249
33.0,20.682442504702287,0.40388235361437563,0.012093331202514523,10.87788814940797,0.6035607886322794
34.0,20.686256667775822,0.40407406763541154,0.012084239777072316,10.87736297069927,0.6035716087108095
35.0,20.690069306170933,0.40426574715097846,0.012075153737626023,10.87683796401957,0.6035824157935631
36.0,20.69388041963334,0.40445739205531933,0.012066073151737659,10.87631312945297,0.603593191701975
37.0,20.697690007909856,0.40464900224280265,0.01205699768640794,10.875788467084906,0.603603860867489
38.0,20.701498070748418,0.4048405776079078,0.01204792741571034,10.875263976999012,0.6036144463737829
39.0,20.70530460789807,0.4050321180452417,0.012038863027854757,10.874739659275647,0.603624948066037
40.0,20.709109619108936,0.40522362344952945,0.012029804519772935,10.874215513995013,0.6036353736174402
41.0,20.712913104132245,0.4054150937156124,0.01202075188819538,10.873691541237154,0.6036457256770673
42.0,20.716715062720294,0.40560652873845754,0.012011705129684446,10.873167741081952,0.603655964105285
43.0,20.72051549462648,0.40579792841314793,0.012002664240663503,10.87264411360915,0.6036660576041079
44.0,20.724314399605287,0.40598929263488626,0.011993629217441435,10.87212065889834,0.6036762377757577
45.0,20.728111777412273,0.4061806212989915,0.011984600056233592,10.871597377028964,0.6036864036859168
46.0,20.731907627804077,0.40637191430091396,0.011975576753179314,10.871074268080333,0.6036965122247683
47.0,20.73570195053842,0.4065631715362084,0.011966559304356738,10.870551332131608,0.6037066731187023
48.0,20.739494745374106,0.406754392900556,0.011957547679140201,10.870028569261377,0.6037167369116777
49.0,20.743286012071014,0.40694557828976446,0.011948541608424703,10.869505979543332,0.6037267711213795
50.0,20.747075750390085,0.4071367275997499,0.01193954137340518,10.868983563056233,0.6037384724784828
51.0,20.750863960093348,0.40732784072655365,0.011930546970337342,10.868461319878703,0.6037500567039017
52.0,20.75465064094391,0.4075189175663381,0.011921558395467232,10.867939250089226,0.6037614222534737
53.0,20.758435792705964,0.4077099580153852,0.01191257561871315,10.867417353765706,0.6037725678212894
54.0,20.76221941514475,0.407900961970099,0.011903598505771336,10.866895630983713,0.6037835958409494
55.0,20.766001508026598,0.4080919293270007,0.011894627102826382,10.866374081820203,0.6037945755587247
56.0,20.76978207111891,0.40828285998273905,0.011885661423598407,10.865852706352198,0.603805805478589
57.0,20.773561104190172,0.4084737538340751,0.011876701552160106,10.865331504657545,0.6038169953776128
58.0,20.77733860700992,0.4086646107778951,0.011867747485109563,10.864810476813954,0.6038282773399697
59.0,20.78111457934879,0.4088554307112098,0.011858799096797197,10.86428962289818,0.6038396789178951
60.0,20.784889020978483,0.4090462135311505,0.011849856389936395,10.863768942987532,0.603851000935122
61.0,20.788661931671776,0.4092369591349632,0.011840919211776263,10.863248437161625,0.6038620549172186
62.0,20.792433311202515,0.4094276674200268,0.01183198776508588,10.862728105497983,0.6038727525680159
63.0,20.796203159345644,0.40961833828383676,0.011823062117626463,10.86220794807358,0.6038832031067991
64.0,20.799971475877154,0.4098089716240116,0.011814142266606164,10.861687964965265,0.6038934829144486
65.0,20.80373826057414,0.4099995673382921,0.011805228207456431,10.861168156249757,0.6039037112455244
66.0,20.807503513214737,0.41019012532454013,0.011796319784608145,10.860648522004649,0.6039138867672093
67.0,20.811267233578192,0.4103806454807479,0.011787417153549128,10.860129062306346,0.6039239464683784
68.0,20.815029421444816,0.4105711277050205,0.011778520311641437,10.859609777231126,0.603933942386706
69.0,20.818790076595977,0.4107615718955944,0.011769629256259306,10.859090666855131,0.6039438622187966
70.0,20.82254919881414,0.41095197795082644,0.011760743984789613,10.858571731254377,0.6039537068809372
71.0,20.826306787882846,0.41114234576919984,0.011751864494632403,10.858052970504744,0.6039638808807092
72.0,20.830062843586695,0.411332675249316,0.011742990783201327,10.85753438468198,0.6039744645395383
73.0,20.83381736571138,0.411522966289909,0.011734122847924192,10.857015973861705,0.6039857371326312
74.0,20.837570354043656,0.4117132187898296,0.011725260686243338,10.8564977381194,0.603995647695146
75.0,20.841321808371355,0.41190343264805707,0.01171640429561587,10.85597967753042,0.6040049132362666
76.0,20.845071728483404,0.4120936077636945,0.011707553673514037,10.855461792169988,0.6040143992089694
77.0,20.84882011416979,0.4122837440359721,0.011698708817425464,10.85494408211319,0.6040241235084411
78.0,20.852566965221563,0.4124738413642419,0.011689869724853317,10.854426547434985,0.6040340854602938
79.0,20.856312281430878,0.412663899647985,0.011681036393316413,10.853909188210192,0.6040434421264501
80.0,20.860056062590957,0.41285391878680405,0.011672208820349396,10.853392004513504,0.6040510197153747
81.0,20.863798308496072,0.4130438986804288,0.01166338700350282,10.852874996419477,0.6040606427006038
82.0,20.86753901894162,0.41323383922871937,0.01165457094034319,10.852358164002537,0.6040700853412978
83.0,20.871278193724017,0.41342374033165336,0.01164576062845299,10.851841507336973,0.6040792050627887
84.0,20.875015832640813,0.4136136018893419,0.0116369560654307,10.851325026496944,0.6040880466645325
85.0,20.878751935490584,0.41380342380202206,0.011628157248890757,10.850808721556476,0.6040965720058195
86.0,20.882486502073014,0.4139932059700528,0.011619364176463512,10.850292592589456,0.6041049516199769
87.0,20.886219532188864,0.4141829482939283,0.011610576845795287,10.849776639669646,0.6041139223008994
88.0,20.889951025639935,0.4143726506742616,0.011601795254548183,10.849260862870663,0.6041234121945417
89.0,20.893680982229156,0.4145623130117964,0.011593019400399956,10.848745262265998,0.6041326963373129
90.0,20.897409401760484,0.4147519352074036,0.01158424928104407,10.848229837929008,0.6041417756954293
91.0,20.90113628403899,0.41494151716208255,0.011575484894189417,10.847714589932911,0.6041507571970421
92.0,20.904861628870805,0.4151310587769618,0.01156672623756037,10.847199518350793,0.6041597874257454
93.0,20.90858543606313,0.4153205599532945,0.011557973308896402,10.846684623255605,0.6041691005162861
94.0,20.912307705424254,0.4155100205924605,0.01154922610595212,10.846169904720163,0.6041787282567086
95.0,20.916028436763536,0.4156994405959786,0.011540484626497092,10.845655362817148,0.6041886948630665
96.0,20.91974762989142,0.4158888198654856,0.011531748868315523,10.845140997619108,0.6041985589364546
97.0,20.923465284619404,0.4160781583027495,0.011523018829206269,10.84462680919845,0.6042090075636536
98.0,20.927181400760094,0.416267455809667,0.01151429450698248,10.844112797627453,0.6042194711523423
99.0,20.930895978127147,0.41645671228826614,0.011505575895535315,10.843598962978254,0.6042297090889707
100.0,20.934609016535312,0.41664592764070546,0.011496862987805407,10.84308530532285,0.6042397436657035
101.0,20.93832051580039,0.41683510176926863,0.011488155781773448,10.842571824733108,0.6042495343493187
102.0,20.9420304757393,0.41702423457637394,0.011479454275446646,10.842058521280753,0.6042591452933911
103.0,20.94573889617,0.41721332596456434,0.01147075846685827,10.841545395037373,0.6042686112535686
104.0,20.94944577691153,0.4174023758365168,0.011462068354067101,10.84103244607442,0.6042780871515979
105.0,20.953151117784028,0.41759138409503543,0.011453383933526653,10.840519674463215,0.6042877296187256
106.0,20.95685491860868,0.41778035064305913,0.011444705201526007,10.840007080274948,0.604297932328223
107.0,20.960557179207765,0.4179692753836531,0.011436032156241581,10.839494663580668,0.6043079994458737
108.0,20.964257899404632,0.4181581582200167,0.011427364795876357,10.838982424451292,0.6043179636717421
109.0,20.967957079023705,0.41834699905547396,0.011418703118659172,10.838470362957592,0.6043280860722376
110.0,20.971654717890495,0.41853579779348843,0.011410047121651971,10.837958479170208,0.6043380733568747
111.0,20.975350815831572,0.4187245543376537,0.011401396802019716,10.837446773159646,0.6043479298612742
112.0,20.979045372674587,0.4189132685916874,0.011392752158185169,10.836935244996273,0.6043580573583726
113.0,20.982738388248276,0.41910194045944377,0.011384113188596797,10.836423894750313,0.6043682671850559
114.0,20.986429862382437,0.4192905698449117,0.011375479891727566,10.835912722491852,0.6043785523705054
115.0,20.990119794907955,0.4194791566522067,0.011366852266073887,10.835401728290835,0.6043890922355178
116.0,20.99380818565678,0.4196677007855789,0.01135823031015452,10.834890912217068,0.6043997721137374
117.0,20.997495034461938,0.41985620214941055,0.0113496140218994,10.834380274340202,0.6044104365869664
118.0,21.00118034115755,0.4200446606482167,0.011341003399721557,10.83386981472975,0.6044201465881828
119.0,21.004864105578783,0.42023307618664524,0.011332398442298325,10.83335953345508,0.6044299446538112
120.0,21.00854632756189,0.4204214486694748,0.011323799148323545,10.832849430585423,0.6044410050319332
121.0,21.01222700694421,0.4206097780016191,0.01131520551650622,10.832339506189872,0.6044512976898216
122.0,21.015906143564145,0.4207980640881242,0.011306617545568828,10.831829760337374,0.6044612547619036
123.0,21.019583737261172,0.42098630683417104,0.011298035234246178,10.831320193096744,0.6044712378759495
124.0,21.023259787875848,0.4211745061450684,0.011289458581283747,10.83081080453665,0.6044811562310735
125.0,21.026934295249802,0.421362661926271,0.011280887585436206,10.830301594725624,0.604491103456772
126.0,21.030607259225732,0.4215507740833504,0.01127232224546605,10.829792563732058,0.6045007422271466
127.0,21.034278679647414,0.421738842522023,0.011263762560141981,10.829283711624202,0.6045100158387698
128.0,21.0379485563597,0.4219268671481393,0.011255208528237573,10.828775038470168,0.6045189765255637
129.0,21.041616889208523,0.42211484786768155,0.011246660148529614,10.828266544337923,0.6045278902877985
130.0,21.045283678040864,0.42230278458676446,0.011238117419796754,10.827758229295302,0.604537562244616
131.0,21.048948922704813,0.4224906772116423,0.011229580340817941,10.82725009340999,0.6045474790796475
132.0,21.0526126230495,0.4226785256486998,0.011221048910370934,10.826742136749543,0.6045567126174324
133.0,21.056274778925157,0.42286632980445554,0.011212523127230875,10.826234359381365,0.6045674447374308
134.0,21.059935390183067,0.42305408958556967,0.011204002990168814,10.825726761372726,0.6045776988481534
135.0,21.063594456675602,0.4232418048988303,0.011195488497950164,10.825219342790755,0.6045868867615434
136.0,21.067251978256195,0.42342947565116473,0.01118697964933337,10.824712103702439,0.6045960029464889
137.0,21.070907954779344,0.42361710174963657,0.011178476443068347,10.824205044174626,0.6046051011785039
138.0,21.07456238610066,0.4238046831014414,0.01116997887789517,10.823698164274022,0.604614034622635
139.0,21.078215272076775,0.42399221961391426,0.011161486952542606,10.823191464067193,0.6046229129213403
140.0,21.08186661256542,0.4241797111945214,0.011153000665726758,10.822684943620564,0.6046317559784583
141.0,21.085516407425402,0.4243671577508705,0.011144520016149633,10.822178603000417,0.6046402268722737
142.0,21.089164656516594,0.42455455919070334,0.011136045002497916,10.821672442272899,0.6046482228420086
143.0,21.09281135969993,0.42474191542189454,0.011127575620261931,10.821166461503987,0.6046596814865867
144.0,21.096456516837428,0.4249292263524637,0.01111911186731146,10.820660660759513,0.604669308148422
145.0,21.10010012779217,0.42511649189055856,0.011110653742359302,10.820155040105172,0.6046783306265202
146.0,21.10374219242832,0.42530371194446426,0.011102201212523003,10.819649599605372,0.604685547785031
147.0,21.107382710611105,0.42549088642261207,0.011093754289838833,10.819144339324906,0.6046946512320517
148.0,21.111021682206818,0.42567801523355975,0.011085312989433455,10.818639259329007,0.6047038505362458
149.0,21.114659107082822,0.4258650982860031,0.011076877309971282,10.81813435968277,0.6047131012245057
150.0,21.11829498510756,0.4260521354887857,0.011068447250097925,10.817629640451141,0.6047223834779005
151.0,21.121929316150535,0.42623912675087344,0.011060022808438652,10.817125101698922,0.6047318308162376
152.0,21.12556210008234,0.42642607198138577,0.011051603983597053,10.816620743490775,0.6047421337476704
153.0,21.129193336774602,0.42661297108956475,0.011043190774153742,10.816116565891218,0.6047533973099565
154.0,21.132823026100045,0.42679982398480326,0.011034783178665063,10.815612568964621,0.6047648629062965
155.0,21.136451167932456,0.4269866305766199,0.011026381195661796,10.815108752775217,0.6047763072731677
156.0,21.140077762146685,0.427173390774684,0.011017984818884633,10.814605117387131,0.6047865196424055
157.0,21.143702808618666,0.4273601044887945,0.01100959403147761,10.814101662863964,0.6047952351382874
158.0,21.147326307225377,0.42754677162888993,0.011001208820903854,10.813598389268883,0.604803843262831
159.0,21.150948257844885,0.4277333921050516,0.010992829210624788,10.813095296665598,0.6048125066003301
160.0,21.15456866035632,0.4279199658274957,0.010984455199108964,10.81259238511767,0.6048214969454173
161.0,21.15818751463987,0.42810649270657614,0.010976086783049274,10.812089654688528,0.6048308449721848
162.0,21.161804820576805,0.4282929726527909,0.010967723960296166,10.81158710544146,0.6048394963802766
163.0,21.16542057804945,0.428479405576774,0.01095936672925803,10.811084737439604,0.6048473978287809
164.0,21.16903478694121,0.42866579138929817,0.010951015088314656,10.810582550745963,0.6048553313627004
165.0,21.17264744713654,0.42885213000127576,0.010942669035103516,10.810080545423373,0.6048633535529196
166.0,21.176258558520974,0.4290384213237559,0.01093432856717373,10.809578721534505,0.6048716487369076
167.0,21.179868120981116,0.4292246652679366,0.010925993682819775,10.809077079141892,0.6048799046473113
168.0,21.183476134404614,0.42941086174514426,0.01091766438030511,10.808575618307914,0.604888128153242
169.0,21.187082598680217,0.429597010666852,0.010909340657765743,10.808074339094816,0.604896204399963
170.0,21.19068751369769,0.429783111944672,0.010901022511610611,10.80757324156469,0.6049041989061766
171.0,21.194290879347918,0.42996916549035574,0.010892709938191907,10.807072325779492,0.6049123983648327
172.0,21.19789269552281,0.43015517121579055,0.010884402935789936,10.806571591801028,0.6049204714448292
173.0,21.20149296211535,0.4303411290330151,0.010876101502653201,10.806071039690966,0.6049296332716293
174.0,21.205091679019603,0.4305270388541971,0.010867805636997737,10.805570669510825,0.604939010480229
175.0,21.20868884613067,0.4307129005916491,0.010859515335763766,10.805070481321989,0.6049482432438132
176.0,21.212284463344734,0.4308987141578293,0.010851230595726244,10.804570475185708,0.6049572060949956
177.0,21.21587853055904,0.4310844794653259,0.010842951415052177,10.804070651163087,0.6049663517580219
178.0,21.21947104767189,0.4312701964268815,0.010834677791876433,10.803571009315085,0.6049754522751584
179.0,21.22306201458265,0.4314558649553614,0.010826409724301244,10.80307154970252,0.604984323906839
180.0,21.22665143119175,0.4316414849637946,0.010818147210395982,10.80257227238606,0.6049932438482908
181.0,21.230239297400683,0.43182705636533375,0.01080989024819678,10.802073177426232,0.6050025418365479
182.0,21.233825613111996,0.43201257907328316,0.010801638835706437,10.801574264883417,0.6050119025796968
183.0,21.23741037822931,0.43219805300107783,0.01079339297089413,10.801075534817853,0.6050214802079269
184.0,21.240993592657293,0.4323834780623101,0.010785152651695398,10.800576987289631,0.6050312720402223
185.0,21.244575256301687,0.4325688541706956,0.01077691787601213,10.800078622358695,0.605041002405147
186.0,21.24815536906928,0.4327541812401093,0.010768688641712617,10.799580440084853,0.605050620414035
187.0,21.251733930867932,0.4329394591845553,0.010760464938489105,10.79908244052741,0.6050602311889627
188.0,21.255310941606552,0.4331246879181845,0.010752246645349869,10.798584623740728,0.6050697675825466
189.0,21.258886401195113,0.4333098673552911,0.010744033877030617,10.79808698978418,0.6050791354196158
190.0,21.262460309544643,0.43349499741031283,0.010735826631448293,10.797589538716997,0.6050883526470636
191.0,21.266032666567224,0.43368007799782154,0.010727624906499724,10.797092270598261,0.6050955993249351
192.0,21.26960347217599,0.43386510903254066,0.010719428700061246,10.79659518548692,0.605106952495395
193.0,21.273172726285154,0.4340500904293323,0.010711238009988938,10.796098283441763,0.6051165005995842
