k,PSNR,SSIM,mse,Log-Gradient,Angle
0.0,20.5564274465075,0.3975745340923567,0.0,10.895221187055961,0.6027865362429313
1.0,20.559624257236994,0.3977320504112505,0.01005651035371898,10.894778988430478,0.60319516986199
2.0,20.563454844312123,0.39792302331261914,0.01222239603295084,10.89425260085575,0.60321490107549
3.0,20.567315373451617,0.39811569447398437,0.012354765989552343,10.89372226232571,0.6032304485962777
4.0,20.571177902056593,0.39830852638165665,0.012364296761233826,10.893191609440901,0.6032416103617649
5.0,20.575040168567096,0.39850139255428846,0.012361124035254287,10.892660944373675,0.6032524351115062
6.0,20.57890186191276,0.3986942754198708,0.01235565717862213,10.892130313361372,0.6032633351866158
7.0,20.582762920707335,0.3988871713556492,0.01234960567450072,10.891599726829202,0.6032742360134004
8.0,20.586623328240012,0.3990800792611077,0.012343337208282765,10.89106918851394,0.6032851160899154
9.0,20.590483078725764,0.39927299869203453,0.01233697373765958,10.89053870002044,0.6032960248528844
10.0,20.59434216924107,0.39946592940060555,0.012330568338114498,10.890008262124274,0.6033069943058113
11.0,20.598200598554847,0.39965887125550265,0.012324134713995159,10.889477875386879,0.603318012918627
12.0,20.602058365821676,0.39985182414528436,0.012317674014757838,10.88894754023227,0.6033290783188175
13.0,20.60591547027927,0.4000447879644082,0.012311196684818858,10.888417256962306,0.6033401608519084
14.0,20.609771911306364,0.40023776261272914,0.012304713267462394,10.88788702576152,0.6033512779890389
15.0,20.613627688260024,0.4004307479907058,0.012298226381607612,10.887356846777857,0.6033624769012982
16.0,20.617482800572304,0.4006237440036422,0.012291738248957953,10.886826720140503,0.603373655952227
17.0,20.621337247697504,0.400816750557975,0.01228525154734103,10.886296645968352,0.6033847737355315
18.0,20.625191029019774,0.40100976755540435,0.012278763811781777,10.885766624402631,0.603395953506583
19.0,20.629044143984192,0.4012027949020098,0.012272278087064513,10.88523665554393,0.6034070835345245
20.0,20.63289659205688,0.40139583250538746,0.012265794743121446,10.884706739488278,0.6034182630347594
21.0,20.636748372705988,0.40158888027331435,0.012259313438176406,10.884176876338092,0.6034294003705275
22.0,20.64059948540118,0.40178193811370194,0.01225283433322754,10.883647066191083,0.6034405543480729
23.0,20.644449929613305,0.4019750059345532,0.012246357675054251,10.883117309137823,0.6034517150637585
24.0,20.648299704814153,0.40216808364394274,0.012239882960993494,10.882587605269777,0.6034628466691355
25.0,20.652148810476252,0.40236117114998593,0.01223341078172924,10.882057954675364,0.6034739703949226
26.0,20.65599724607274,0.4025542683608341,0.012226940652080699,10.881528357446353,0.6034850318705717
27.0,20.659845011077277,0.4027473751846662,0.012220471406048568,10.880998813679385,0.6034960571229758
28.0,20.663692104963932,0.4029404915296646,0.01221400358679899,10.88046932346642,0.6035069979663222
29.0,20.667538527207153,0.4031336173040274,0.01220753826365361,10.8799398868938,0.6035179754319435
30.0,20.671384277281714,0.4033267524159505,0.012201075373136014,10.879410504047888,0.603529043080414
31.0,20.675229354662683,0.4035198967736247,0.012194614432254391,10.878881175016684,0.6035401394089024
32.0,20.679073758825403,0.4037130502852501,0.01218815598807401,10.878351899885876,0.6035511842351065
33.0,20.682917489245455,0.40390621285900674,0.012181699999744179,10.877822678739756,0.603562159451131
34.0,20.68676054539864,0.4040993844030732,0.012175245882512375,10.87729351165685,0.6035730568521719
35.0,20.690602926761002,0.4042925648256173,0.012168793712263707,10.876764398727024,0.6035839501130517
36.0,20.69444463280878,0.40448575403480147,0.012162343564671465,10.876235340038424,0.6035948029205724
37.0,20.698285663018417,0.4046789519387688,0.012155895111101997,10.87570633568068,0.6036055472042264
38.0,20.702126016866572,0.4048721584456634,0.012149448412549387,10.875177385741821,0.6036162080914642
39.0,20.70596569383008,0.40506537346360266,0.012143004166475733,10.874648490306695,0.6036267938328662
40.0,20.709804693385966,0.4052585969007028,0.012136562372036223,10.874119649460127,0.6036372998629532
41.0,20.71364301501143,0.4054518286650637,0.012130123028183934,10.873590863286914,0.603647731159665
42.0,20.71748065818386,0.4056450686647732,0.012123686133702986,10.873062131871839,0.6036580382513407
43.0,20.721317622380802,0.40583831680790844,0.012117251687237561,10.872533455299672,0.6036682025849148
44.0,20.725153907080003,0.40603157300253084,0.01211081968731639,10.87200483365517,0.6036785244177768
45.0,20.72898951175936,0.4062248371566912,0.012104390132373575,10.871476267023082,0.6036887967401878
46.0,20.73282443589696,0.40641810917842597,0.012097963020766312,10.870947755488151,0.6036989718213296
47.0,20.736658678971057,0.406611388975761,0.012091538350789514,10.870419299135115,0.6037092728023625
48.0,20.740492240460078,0.4068046764567124,0.012085116094755018,10.869890898048228,0.6037194165430231
49.0,20.744325119842628,0.40699797152927814,0.012078695986812596,10.869362552307068,0.6037299502122999
50.0,20.74815731659747,0.40719127410144357,0.012072278308634976,10.868834261996378,0.6037418472352767
51.0,20.751988830203555,0.40738458408119155,0.012065863058689185,10.868306027200891,0.6037535007032434
52.0,20.75581966013999,0.4075779013764797,0.012059450235431406,10.86777784800535,0.6037649328975553
53.0,20.759649805886063,0.407771225895267,0.0120530398128193,10.867249724494075,0.6037761564349259
54.0,20.76347926692124,0.40796455754549193,0.012046631656457979,10.866721656749128,0.6037873179286711
55.0,20.767308042725155,0.4081578962350855,0.012040225819306579,10.86619364485417,0.6037985154683773
56.0,20.771136132777606,0.4083512418719631,0.012033822310547651,10.865665688892982,0.603809879213472
57.0,20.774963536558573,0.40854459436403173,0.012027421219106183,10.865137788950342,0.6038212380013124
58.0,20.778790253548213,0.4087379536191918,0.012021022543783538,10.864609945111033,0.6038327233364941
59.0,20.782616283226854,0.40893131954532685,0.012014626183302693,10.864082157459157,0.6038442752595196
60.0,20.786441625075007,0.40912469205031193,0.012008232111117626,10.86355442607911,0.6038556695685099
61.0,20.79026627857334,0.4093180710420159,0.012001840190558822,10.863026751058023,0.603866698696549
62.0,20.794090243202735,0.40951145642828485,0.011995450610431663,10.862499132481103,0.6038774676801603
63.0,20.797913518444222,0.4097048481169727,0.01198906345224797,10.86197157043308,0.6038879581953974
64.0,20.801736103779035,0.40989824601590863,0.011982678715410526,10.861444064998688,0.6038983473576148
65.0,20.80555799868857,0.41009165003292075,0.011976296399333165,10.860916616262662,0.6039087297079445
66.0,20.809379202654405,0.41028506007582743,0.011969916368185628,10.86038922431063,0.6039189975935052
67.0,20.813199715158305,0.41047847605243004,0.011963538741163,10.859861889227425,0.6039291685369846
68.0,20.817019535682224,0.41067189787053276,0.011957163536968697,10.859334611097758,0.6039392881186124
69.0,20.820838663708287,0.41086532543792104,0.011950790755165936,10.858807390006346,0.6039493227294981
70.0,20.824657098718802,0.4110587586623789,0.01194442039532917,10.858280226037907,0.6039594930151901
71.0,20.828474840196275,0.41125219745167546,0.011938052457045082,10.857753119277172,0.6039700186154113
72.0,20.83229188762338,0.411445641713579,0.01193168693991264,10.857226069808867,0.6039812003996317
73.0,20.836108240483,0.4116390913558455,0.011925323843543851,10.856699077717732,0.6039921611061655
74.0,20.839923898258167,0.41183254628622157,0.011918963167564092,10.856172143088505,0.6040015404012042
75.0,20.84373886043214,0.41202600641244874,0.011912604911612367,10.855645266005933,0.6040110992450073
76.0,20.847553126488346,0.41221947164226397,0.011906249075341638,10.855118446554764,0.6040209311811188
77.0,20.85136669591039,0.41241294188339256,0.011899895658419117,10.854591684819754,0.604030997140622
78.0,20.855179568182095,0.41260641704355816,0.011893544660526383,10.85406498088566,0.6040409683042512
79.0,20.858991742787452,0.4127998970304678,0.011887196081359538,10.853538334837248,0.6040489013616129
80.0,20.862803219210655,0.412993381751835,0.011880849920629455,10.853011746759282,0.6040581780048837
81.0,20.86661399693607,0.4131868711153582,0.011874506178061685,10.852485216736536,0.604067914509773
82.0,20.870424075448287,0.4133803650287337,0.01186816485339669,10.851958744853782,0.6040772771150561
83.0,20.874233454232062,0.4135738633996498,0.011861825946389768,10.8514323311958,0.604086350471906
84.0,20.87804213277235,0.4137673661357924,0.01185548945681105,10.850905975847374,0.6040950825451005
85.0,20.881850110554325,0.41396087314483415,0.011849155384445679,10.850379678893288,0.6041036694765408
86.0,20.88565738706331,0.41415438433445567,0.011842823729093515,10.849853440418332,0.6041126685149694
87.0,20.889463961784863,0.41434789961231777,0.011836494490569279,10.8493272605073,0.6041223368945562
88.0,20.893269834204734,0.4145414188860895,0.011830167668702415,10.848801139244985,0.6041318414515867
89.0,20.897075003808844,0.4147349420634297,0.011823843263337016,10.848275076716188,0.6041411264968924
90.0,20.90087947008335,0.4149284690519907,0.011817521274331768,10.847749073005712,0.6041502990073665
91.0,20.904683232514575,0.415121999759422,0.01181120170155977,10.847223128198356,0.6041595215293764
92.0,20.90848629058906,0.41531553409337435,0.011804884544908458,10.846697242378934,0.6041690319888661
93.0,20.912288643793545,0.4155090719614876,0.011798569804279483,10.846171415632252,0.604178891520689
94.0,20.916090291614964,0.4157026132714052,0.011792257479588467,10.84564564804312,0.6041890835414074
95.0,20.919891233540465,0.4158961579307574,0.011785947570765013,10.845119939696357,0.6041991614356653
96.0,20.92369146905738,0.41608970584718435,0.01177964007775244,10.844594290676776,0.6042098930905558
97.0,20.927490997653273,0.41628325692830986,0.011773335000507586,10.844068701069196,0.6042205837841198
98.0,20.931289818815877,0.41647681108176665,0.011767032337406391,10.843543170958434,0.6042310292032141
99.0,20.935087932033156,0.4166703682151823,0.01176073208101976,10.84301770042931,0.6042412689388669
100.0,20.938885336793266,0.4168639282361726,0.011754434231462664,10.842492289566643,0.6042512580522686
101.0,20.942682032584585,0.41705749105236717,0.011748138788876258,10.841966938455249,0.6042610703228432
102.0,20.946478018895682,0.4172510565713809,0.011741845753427297,10.841441647179947,0.604270733901909
103.0,20.950273295215347,0.41744462470083327,0.011735555125307759,10.840916415825555,0.6042804628944528
104.0,20.95406786103256,0.41763819534834007,0.011729266903818794,10.840391244476898,0.6042905384139353
105.0,20.95786171583653,0.4178317684215207,0.01172298108660852,10.839866133218806,0.6043009743009534
106.0,20.961654859116674,0.41802534382798373,0.011716697673984628,10.839341082136109,0.6043112246114251
107.0,20.965447290362608,0.4182189214753526,0.011710416666281368,10.83881609131364,0.6043215284850031
108.0,20.969239009064164,0.4184125012712332,0.011704138063858678,10.838291160836226,0.6043318602274254
109.0,20.973030014711398,0.4186060831232418,0.011697861866444654,10.837766290788696,0.6043420492594878
110.0,20.97682030679455,0.4187996669389953,0.011691588072729327,10.837241481255885,0.6043522349906187
111.0,20.980609884804124,0.4189932526261008,0.011685316683266759,10.836716732322627,0.6043627052133066
112.0,20.984398748230788,0.41918684009217927,0.011679047698637013,10.83619204407375,0.6043732165452284
113.0,20.98818689656545,0.41938042924483937,0.01167278111944488,10.835667416594081,0.6043839107640825
114.0,20.99197432929923,0.41957401999170174,0.011666516946319035,10.835142849968443,0.6043948748260279
115.0,20.99576104592346,0.4197676122403786,0.011660255179805804,10.834618344281658,0.6044058648073478
116.0,20.999547045929702,0.41996120589849256,0.011653995819809387,10.834093899618525,0.604416406415508
117.0,21.003332328809734,0.4201548008736619,0.011647738867126266,10.833569516063847,0.6044254556898176
118.0,21.007116894055528,0.4203483970735042,0.011641484322571345,10.833045193702418,0.6044372474636154
119.0,21.01090074115931,0.4205419944056459,0.011635232186976362,10.832520932619035,0.6044480361890493
120.0,21.01468386961352,0.4207355927777133,0.011628982461188656,10.831996732898492,0.604458355938672
121.0,21.018466278910793,0.4209291920973303,0.01162273514606964,10.831472594625577,0.6044686242400127
122.0,21.022247968544015,0.42112279227212795,0.011616490242493392,10.83094851788508,0.6044788164321635
123.0,21.026028938006288,0.42131639320974273,0.011610247751345067,10.830424502761785,0.6044891153335004
124.0,21.029809186790924,0.42150999481780427,0.011604007673519531,10.829900549340472,0.6044991186572412
125.0,21.03358871439147,0.4217035970039577,0.011597770009919881,10.829376657705925,0.6045087382605601
126.0,21.037367520301707,0.4218971996758427,0.011591534761455897,10.828852827942917,0.604518002097023
127.0,21.041145604015625,0.4220908027411045,0.011585301929042523,10.828329060136223,0.604527213696611
128.0,21.044922965027446,0.4222844061073922,0.011579071513598431,10.827805354370616,0.6045370919134497
129.0,21.048699602831622,0.4224780096823653,0.011572843516044533,10.82728171073086,0.6045473383407951
130.0,21.052475516922833,0.42267161337367565,0.01156661793730235,10.826758129301723,0.6045568959826061
131.0,21.056250706795986,0.42286521708898883,0.011560394778292708,10.826234610167965,0.6045678142136778
132.0,21.06002517194621,0.42305882073597223,0.01155417403993403,10.825711153414344,0.6045784246293433
133.0,21.063798911868883,0.42325242422229753,0.011547955723141065,10.825187759125619,0.6045878956398855
134.0,21.067571926059596,0.4234460274556415,0.011541739828823203,10.824664427386539,0.6045973153335483
135.0,21.071344214014175,0.4236396303436887,0.011535526357883135,10.824141158281853,0.6046067038981687
136.0,21.07511577522869,0.4238332327941286,0.011529315311215411,10.823617951896306,0.6046158934938283
137.0,21.078886609199422,0.4240268347146536,0.011523106689704845,10.823094808314641,0.6046250981635631
138.0,21.082656715422914,0.42422043601296244,0.011516900494225263,10.822571727621597,0.6046341828406222
139.0,21.086426093395918,0.4244140365967626,0.011510696725638012,10.822048709901907,0.604642790729361
140.0,21.09019474261544,0.42460763637376764,0.01150449538479051,10.821525755240302,0.604652178916729
141.0,21.093962662578704,0.424801235251697,0.011498296470288025,10.8210028637215,0.6046635288588119
142.0,21.097729852783186,0.4249948331382752,0.011492099981096881,10.820480035430196,0.6046731715437126
143.0,21.101496312726592,0.4251884299412363,0.011485905918096425,10.819957270451079,0.6046818240787092
144.0,21.105262041906872,0.42538202556831983,0.011479714282150368,10.819434568868834,0.6046897472024145
145.0,21.1090270398222,0.4255756199272773,0.011473525041778556,10.818911930766886,0.6046995549408147
146.0,21.11279130597101,0.4257692129258604,0.011467338213654754,10.818389356229359,0.6047090495633749
147.0,21.11655483985196,0.4259628044718351,0.011461153813234013,10.81786684534089,0.6047187259756184
148.0,21.12031764096396,0.4261563944729718,0.011454971841333492,10.817344398186105,0.6047283459325553
149.0,21.12407970880615,0.4263499828370521,0.011448792298751901,10.81682201484963,0.6047385145535745
150.0,21.127841042877918,0.42654356947186195,0.011442615186267841,10.816299695416077,0.6047500677387131
151.0,21.131601642678888,0.4267371542852018,0.011436440504638422,10.815777439970057,0.6047619102784897
152.0,21.135361507708957,0.42693073718487745,0.011430268254598048,10.815255248596173,0.6047738628289212
153.0,21.13912063746822,0.42712431807870316,0.011424098435973131,10.814733121379026,0.6047848887619429
154.0,21.142879031457053,0.42731789687450367,0.011417931044511019,10.814211058403254,0.6047940736754611
155.0,21.14663668917607,0.42751147348011376,0.011411766080605686,10.813689059753484,0.6048030132951294
156.0,21.150393610126127,0.42770504780337976,0.011405603513540991,10.813167125513438,0.6048119881334594
157.0,21.154149793808322,0.42789861975215476,0.011399443368043896,10.812645255767533,0.604821292923244
158.0,21.15790523972402,0.42809218923430375,0.011393285651198216,10.812123450600387,0.6048310016073438
159.0,21.161659947374815,0.42828575615770115,0.011387130361818421,10.811601710096616,0.6048399693561334
160.0,21.165413916262562,0.4284793204302337,0.01138097750052942,10.81108003434083,0.6048481627115204
161.0,21.169167145889357,0.42867288195979847,0.011374827067929407,10.810558423417627,0.6048564050248496
162.0,21.172919635757573,0.4288664406543021,0.011368679064588803,10.810036877411605,0.6048647840988722
163.0,21.1766713853698,0.4290599964216646,0.011362533490290889,10.809515396407331,0.6048733976741457
164.0,21.1804223942289,0.42925354916981723,0.011356390344787684,10.808993980489344,0.6048819957008326
165.0,21.184172661837984,0.4294470988067027,0.01135024962856559,10.808472629742178,0.6048904916456945
166.0,21.187922187700416,0.42964064524027584,0.011344111341581734,10.807951344250357,0.6048988921520734
167.0,21.191670971319816,0.4298341883785013,0.0113379754828912,10.807430124098396,0.6049071595986338
168.0,21.195419012200063,0.43002772812935824,0.011331842050903611,10.806908969370802,0.6049157361333095
169.0,21.199166309845275,0.4302212644008412,0.011325711046135473,10.806387880152084,0.6049246080670028
170.0,21.20291286375985,0.4304147971009509,0.011319582469072107,10.805866856526732,0.6049343034243337
171.0,21.206658673448434,0.43060832613771044,0.011313456320166797,10.805345898579233,0.6049440813848125
172.0,21.210403738415927,0.4308018514191416,0.01130733259823271,10.804825006394077,0.6049535572029551
173.0,21.214148058167485,0.4309953728532998,0.011301211302558387,10.804304180055752,0.6049630016725495
174.0,21.217891632208534,0.4311888903482332,0.011295092433551424,10.803783419648736,0.6049725899354691
175.0,21.22163446004476,0.431382403812018,0.011288975991587152,10.803262725257504,0.6049819150207651
176.0,21.225376541182097,0.4315759131527404,0.011282861977007893,10.802742096966515,0.6049911518816261
177.0,21.229117875126747,0.43176941827850185,0.0112767503901225,10.802221534860227,0.6050008278655055
178.0,21.232858461385185,0.4319629190974128,0.0112706412312059,10.801701039023083,0.6050106011346603
179.0,21.236598299464138,0.4321564155176027,0.011264534500498689,10.801180609539522,0.6050204979985297
180.0,21.240337388870586,0.432349907447223,0.011258430198206774,10.80066024649397,0.605030724373124
181.0,21.244075729111795,0.43254339479442505,0.011252328324501121,10.800139949970848,0.6050408853176557
182.0,21.247813319695283,0.4327368774673885,0.011246228879517593,10.799619720054567,0.6050509203374815
183.0,21.251550160128847,0.43293035537430247,0.011240131863356765,10.799099556829526,0.605060956817683
184.0,21.25528624992053,0.43312382842337005,0.011234037276083863,10.79857946038012,0.6050708513751853
185.0,21.259021588578655,0.43331729652282064,0.011227945117728769,10.798059430790733,0.6050801952274955
186.0,21.262756175611813,0.43351075958088486,0.011221855273064813,10.797539468140217,0.6050883585763491
187.0,21.26649001052886,0.43370421750582083,0.011215767844245892,10.797019572512806,0.6050997660926943
188.0,21.270223092838897,0.433897670205901,0.011209682834067182,10.79649974399286,0.6051100809689759
189.0,21.273955422051337,0.434091117589416,0.011203600242592962,10.795979982664731,0.6051195014892495
190.0,21.277686997675826,0.4342845595646623,0.011197520069865427,10.795460288612762,0.6051283381545164
191.0,21.281417819222295,0.43447799603997056,0.011191442315904753,10.79494066192129,0.6051374398844032
192.0,21.28514788620096,0.4346714269236805,0.01118536684093965,10.794421102674292,0.6051468002768097
193.0,21.288877198122286,0.4348648521241483,0.011179293716356507,10.793901610955963,0.6051561634098818
