k,PSNR,SSIM,mse,Log-Gradient,Angle
0.0,20.5564274465075,0.3975745340923567,0.0,10.895221187055961,0.6027865362429313
1.0,20.559625038622535,0.39773208891618655,0.010058968120252197,10.894778880338976,0.6031951726327363
2.0,20.56345734368478,0.3979231470399411,0.012227807494568416,10.894252255935713,0.6032149077131461
3.0,20.56732053511621,0.39811595059823274,0.012363184827676265,10.893721550792064,0.6032304637215071
4.0,20.571186671134832,0.39830896215533246,0.012375732465410879,10.893190401358474,0.6032416379239073
5.0,20.57505349045188,0.39850205527727117,0.012375576780082354,10.892659109730543,0.603252476928632
6.0,20.57892068219354,0.39869521243516387,0.012373125292313004,10.892127722080126,0.6032633941745826
7.0,20.58278818515501,0.3988884300484505,0.012370087004102782,10.891596248769568,0.6032743147037926
8.0,20.586655982802228,0.39908170705846446,0.012366829442934681,10.891064693473817,0.6032852166970092
9.0,20.590524069524957,0.399275043062663,0.012363474505895575,10.890533057736372,0.6032961492707081
10.0,20.594392442573103,0.3994684378547535,0.012360075236249185,10.890001342271708,0.6033071462808536
11.0,20.598261100888095,0.39966189134484936,0.012356645328840142,10.889469547580344,0.6033181956838642
12.0,20.60213004379621,0.3998554034628338,0.012353185929218061,10.888937674025575,0.6033292944721135
13.0,20.605999270705993,0.40004897414438706,0.01234970747258044,10.888405721848654,0.6033404130831318
14.0,20.609868781166284,0.40024260333049494,0.012346220489017627,10.887873691173624,0.6033515716492509
15.0,20.61373857470346,0.4004362909626468,0.012342727597362099,10.887341582088004,0.6033628130649178
16.0,20.617608650918108,0.4006300369870733,0.012339231013026036,10.886809394660643,0.6033740337863346
17.0,20.621479009432285,0.40082384135104837,0.012335733413489343,10.886277128950159,0.6033851988446708
18.0,20.625349649797187,0.40101770399700776,0.0123322323364934,10.885744785037604,0.6033964237144054
19.0,20.629220571624085,0.4012116248716701,0.012328730821784888,10.885212362963465,0.6034076019022632
20.0,20.633091774544585,0.40140560392316726,0.012325229239383461,10.884679862763731,0.6034188430410204
21.0,20.63696325819155,0.40159964109972074,0.012321727248956521,10.884147284480841,0.6034300312367048
22.0,20.640835022198587,0.4017937363495861,0.012318225010553943,10.883614628152618,0.6034412486977744
23.0,20.644707066199754,0.4019878896210107,0.01231472277173218,10.8830818938098,0.6034524732930768
24.0,20.648579389829248,0.40218210086221357,0.012311220030231789,10.88254908148409,0.60346366755172
25.0,20.652451992721268,0.4023763700213654,0.012307717376026149,10.882016191204217,0.603474857334709
26.0,20.656324874509842,0.4025706970465633,0.012304214326839858,10.88148322300232,0.603485989986878
27.0,20.660198034828767,0.40276508188583815,0.012300709725096049,10.880950176915443,0.603497080463213
28.0,20.664071473311466,0.40295952448712397,0.012297204098630355,10.8804170529761,0.6035080975178561
29.0,20.66794518959099,0.4031540247982661,0.012293698521664734,10.879883851211215,0.603519154820672
30.0,20.671819183299935,0.4033485827670142,0.012290192934731322,10.879350571647784,0.6035303171013328
31.0,20.675693454070412,0.4035431983410159,0.012286686849402536,10.878817214314537,0.6035414945058156
32.0,20.679568001534054,0.40373787146781565,0.012283180814902124,10.87828377923795,0.603552620406907
33.0,20.68344282532194,0.40393260209484677,0.012279674791529662,10.877750266443156,0.6035636723075241
34.0,20.68731792506462,0.4041273901694385,0.012276168198833837,10.877216675949578,0.6035746561233302
35.0,20.69119330039207,0.40432223563880787,0.012272661108239748,10.8766830077881,0.6035856479978319
36.0,20.695068950933717,0.4045171384500623,0.01226915360214558,10.876149261987889,0.6035965822658355
37.0,20.698944876318414,0.40471209855019247,0.012265645354524651,10.875615438579691,0.6036074146969634
38.0,20.702821076174423,0.40490711588608214,0.012262136409846297,10.875081537592777,0.6036181540726498
39.0,20.70669755012943,0.40510219040449846,0.012258627473544666,10.874547559053267,0.6036288357517522
40.0,20.710574297810517,0.4052973220520912,0.012255118545035453,10.87401350298732,0.6036394299223186
41.0,20.71445131884415,0.40549251077539794,0.01225160962353179,10.873479369421148,0.6036499452521203
42.0,20.718328612856208,0.4056877565208455,0.012248100708077162,10.872945158381008,0.6036603287420218
43.0,20.722206179471947,0.4058830592347384,0.01224459179757437,10.872410869893217,0.6036706170107422
44.0,20.726084018316012,0.4060784188632642,0.012241082890810065,10.871876503984156,0.6036810550122574
45.0,20.729962129012446,0.4062738353525022,0.012237573986475554,10.87134206068026,0.6036914373440466
46.0,20.733840511184663,0.4064693086484079,0.012234065083184255,10.870807540008034,0.6037017053017292
47.0,20.73771916445547,0.4066648386968244,0.01223055617948662,10.870272941994049,0.6037121321533439
48.0,20.741598088447045,0.4068604254434778,0.012227047248749838,10.869738266664413,0.6037223937531951
49.0,20.745477282780953,0.40705606883397466,0.012223538026489565,10.869203514040725,0.6037336185583625
50.0,20.749356747078135,0.40725176881380937,0.012220028792747322,10.868668684149768,0.603745575992179
51.0,20.75323648095889,0.40744752532835404,0.012216519546240761,10.868133777018395,0.6037573040775113
52.0,20.757116484042918,0.4076433383228644,0.012213010285675624,10.867598792673537,0.6037688059471121
53.0,20.76099675594928,0.4078392077424848,0.012209500987253444,10.867063731141803,0.6037801370285895
54.0,20.764877296296405,0.40803513353223825,0.012205991514323498,10.866528592447564,0.6037914356909463
55.0,20.768758104702115,0.4082311156370256,0.012202481925074816,10.86599337661692,0.6038028956123785
56.0,20.77263918078358,0.4084271540016395,0.012198972221576213,10.865458083676097,0.6038143989218538
57.0,20.776520524157345,0.408623248570746,0.012195462495886508,10.864922713652422,0.6038259613572409
58.0,20.780402134439335,0.40881939928890293,0.012191952747050623,10.864387266573303,0.6038376740309365
59.0,20.78428401124483,0.40901560610054194,0.012188442898302334,10.863851742465702,0.6038493485164032
60.0,20.788166154188495,0.40921186894998085,0.012184932888894813,10.863316141356503,0.6038607760991567
61.0,20.792048562884364,0.40940818778142307,0.0121814225975562,10.86278046327572,0.6038718208574543
62.0,20.795931236945826,0.4096045625389452,0.012177912195738683,10.862244708251565,0.603882618580203
63.0,20.799814175985645,0.4098009931665169,0.01217440177778391,10.86170887631176,0.6038932202236245
64.0,20.803697379615972,0.40999747960798166,0.012170891343330222,10.861172967484107,0.6039037701856403
65.0,20.80758084744829,0.4101940218070719,0.012167380892025912,10.860636981796489,0.6039142699863284
66.0,20.811464579093474,0.4103906197073904,0.012163870313349132,10.860100919277592,0.6039246527237291
67.0,20.81534857416175,0.41058727325243827,0.01216035967874781,10.859564779955699,0.6039349780134736
68.0,20.819232832262735,0.41078398238558345,0.012156849030065002,10.859028563858889,0.6039452193964825
69.0,20.823117353005372,0.41098074705008597,0.01215333836709409,10.858492271015328,0.6039554331031793
70.0,20.827002135998,0.4111775671890873,0.012149827689638855,10.857955901453257,0.6039659949960391
71.0,20.830887180848308,0.41137444274560336,0.012146316997513942,10.857419455201006,0.6039770893906763
72.0,20.83477248716335,0.4115713736625391,0.012142806290545398,10.856882932286977,0.6039887350575256
73.0,20.83865805454954,0.41176835988267535,0.01213929556857112,10.856346332739662,0.6039985323887668
74.0,20.842543882612663,0.4119654013486837,0.012135784831441253,10.855809656587631,0.6040082004753632
75.0,20.846429970957864,0.412162498003106,0.012132274079018512,10.855272903859534,0.6040181324840307
76.0,20.850316319189645,0.4123596497883765,0.012128763311178478,10.854736074584107,0.6040283266826879
77.0,20.85420292691186,0.4125568566468063,0.012125252527809823,10.854199168790165,0.6040386534884539
78.0,20.858089793727743,0.41275411852058536,0.012121741728814599,10.853662186506606,0.6040472120269998
79.0,20.861976919239872,0.4129514353517898,0.012118230914108186,10.85312512776241,0.6040561271451128
80.0,20.86586430305019,0.41314880708237617,0.01211472008361968,10.85258799258664,0.6040661786302618
81.0,20.869751944760008,0.41334623365418527,0.01211120923729182,10.852050781008442,0.6040757889094451
82.0,20.873639843969983,0.413543715008934,0.01210769837508103,10.851513493057043,0.6040850942571993
83.0,20.877528000280122,0.4137412510882239,0.012104187496957634,10.850976128761753,0.6040940523083638
84.0,20.88141641328982,0.41393884183353985,0.01210067660290569,10.850438688151966,0.6041028426672851
85.0,20.885305082597792,0.4141364871862441,0.012097165692923082,10.849901171257157,0.6041119513502247
86.0,20.88919400780214,0.41433418708758585,0.012093654767021421,10.849363578106885,0.6041218242750838
87.0,20.893083188500302,0.4145319414786903,0.012090143825226128,10.848825908730795,0.6041315510819133
88.0,20.896972624289084,0.41472975030056464,0.012086632867576202,10.848288163158609,0.6041410503274693
89.0,20.900862314764638,0.4149276134941042,0.012083121894124287,10.847750341420134,0.604150429902225
90.0,20.904752259522475,0.4151255310000781,0.012079610904936524,10.847212443545267,0.6041598659729032
91.0,20.908642458157466,0.4153235027591415,0.012076099900092433,10.846674469563979,0.6041696232870598
92.0,20.912532910263828,0.4155215287118299,0.012072588879684796,10.84613641950633,0.604179786539608
93.0,20.916423615435118,0.4157196087985573,0.012069077843819585,10.84559829340246,0.6041902144690154
94.0,20.920314573264278,0.41591774295962297,0.01206556679261574,10.845060091282598,0.6042005879322839
95.0,20.924205783343588,0.4161159311352096,0.012062055726205109,10.844521813177051,0.6042116180159759
96.0,20.928097245264663,0.4163141732653714,0.012058544644732163,10.843983459116215,0.6042225349782204
97.0,20.93198895861849,0.41651246929005725,0.01205503354835405,10.843445029130566,0.6042331941424572
98.0,20.93588092299539,0.4167108191490852,0.012051522428384368,10.842906523250658,0.6042436413757234
99.0,20.939773137985064,0.41690922278216264,0.012048011284791674,10.842367941507137,0.6042538221774966
100.0,20.94366560317653,0.4171076801288751,0.012044500117894765,10.841829283930723,0.6042638539948056
101.0,20.947558318158173,0.4173061911286924,0.012040988928037762,10.841290550552223,0.6042737613643894
102.0,20.951451282517727,0.41750475572096074,0.01203747771558954,10.840751741402526,0.6042837680238443
103.0,20.955344495842265,0.4177033738449126,0.012033966480559138,10.84021285651261,0.6042943560712798
104.0,20.959237957718216,0.41790204543965653,0.012030455220178963,10.839673895913542,0.6043050259325067
105.0,20.963131667731357,0.4181007704441861,0.012026943934931696,10.839134859636477,0.6043155183439496
106.0,20.96702562546681,0.4182995487973767,0.012023432625326264,10.83859574771265,0.6043261589123329
107.0,20.970919830509036,0.4184983804379843,0.012019921291897264,10.838056560173381,0.6043367125632361
108.0,20.974814282441866,0.4186972653046433,0.012016409934969276,10.837517297050073,0.6043471206458458
109.0,20.978708980848445,0.418896203335872,0.012012898552916726,10.836977958374222,0.6043578017605127
110.0,20.982603925311295,0.4190951944700694,0.012009387146468476,10.836438544177403,0.6043685841706942
111.0,20.986499115412258,0.4192942386455176,0.012005875716379413,10.835899054491275,0.6043794536561787
112.0,20.990394550732532,0.4194933358003788,0.012002364263429583,10.835359489347583,0.6043907047961604
113.0,20.994290230852663,0.4196924858726902,0.01199885278842297,10.834819848778151,0.6044019884988208
114.0,20.998186155352528,0.4198916888003803,0.01199534129163731,10.834280132814875,0.6044131547166449
115.0,21.002082323811358,0.42009094452125567,0.01199182977358562,10.83374034148973,0.604422977614444
116.0,21.00597873580773,0.4202902529730004,0.011988318235244743,10.833200474834774,0.6044342636271636
117.0,21.00987539091955,0.4204896140931813,0.011984806677610305,10.83266053288215,0.6044455927659229
118.0,21.01377228872407,0.42068902781924855,0.011981295101695159,10.832120515664082,0.6044563134198969
119.0,21.017669428797895,0.42088849408853274,0.011977783508528184,10.831580423212884,0.604466900134872
120.0,21.021566810716955,0.421088012838244,0.01197427189915254,10.83104025556095,0.6044774306843134
121.0,21.02546443405653,0.4212875840054757,0.011970760274624443,10.830500012740758,0.6044880694559627
122.0,21.029362298391238,0.4214872075272004,0.01196724863601161,10.829959694784877,0.6044984305581216
123.0,21.033260403295042,0.42168688334027377,0.011963736984391791,10.829419301725954,0.6045083851339094
124.0,21.03715874834123,0.4218866113814313,0.011960225320851189,10.828878833596724,0.6045179685489183
125.0,21.041057333102447,0.4220863915872896,0.011956713646483094,10.828338290430008,0.6045274953957233
126.0,21.044956157150658,0.4222862238943499,0.011953201962386265,10.827797672258713,0.6045377279829421
127.0,21.048855220057185,0.4224861082389872,0.01194969026966344,10.827256979115829,0.6045483258366263
128.0,21.05275452139267,0.4226860445574645,0.011946178569419897,10.826716211034434,0.604558074037314
129.0,21.0566540607271,0.42288603278592674,0.011942666862761804,10.826175368047693,0.6045694909286836
130.0,21.060553837629804,0.42308607286039335,0.01193915515079478,10.825634450188852,0.6045803098501241
131.0,21.064453851669445,0.423286164716769,0.011935643434622379,10.825093457491253,0.6045900691518792
132.0,21.068354102414013,0.4234863082908386,0.01193213171534462,10.824552389988312,0.6045998301609354
133.0,21.072254589430827,0.4236865035182696,0.01192861999405635,10.824011247713544,0.6046095043744916
134.0,21.07615531228657,0.4238867503346114,0.011925108271845904,10.823470030700541,0.6046189984932547
135.0,21.080056270547235,0.42408704867529495,0.011921596549793531,10.82292873898299,0.6046285551457399
136.0,21.083957463778155,0.4242873984756244,0.011918084828969977,10.822387372594658,0.604637857877487
137.0,21.087858891544006,0.42448779967079303,0.011914573110435023,10.821845931569403,0.6046467200763436
138.0,21.09176055340878,0.4246882521958754,0.011911061395235954,10.82130441594117,0.6046579240952211
139.0,21.095662448935812,0.42488875598582504,0.011907549682659923,10.820762825743994,0.6046685983882524
140.0,21.099564577687765,0.4250893109754781,0.01190403797135653,10.820221161011967,0.6046781702685755
141.0,21.10346693922665,0.4252899170995488,0.011900526262333656,10.819679421779265,0.6046855256580396
142.0,21.107369533113783,0.425490574292636,0.011897014556662382,10.81913760808015,0.6046962149539827
143.0,21.11127235890983,0.42569128248921784,0.01189350285539822,10.818595719948977,0.6047059257131455
144.0,21.11517541617478,0.4258920416236551,0.01188999112317498,10.81805375741866,0.6047160071984469
145.0,21.119078704467956,0.4260928516301876,0.011886479385987544,10.817511720523381,0.6047259603992428
146.0,21.122982223347996,0.42629371244293995,0.011882967654344066,10.81696960929772,0.6047362704271418
147.0,21.126885972372893,0.4264946239959129,0.011879455929255567,10.81642742377634,0.6047480348928699
148.0,21.13078995109995,0.426695586222994,0.011875944211714643,10.815885163993986,0.6047603149988691
149.0,21.134694159085797,0.4268965990579519,0.011872432502694086,10.815342829985497,0.604772763653778
150.0,21.1385985958864,0.4270976624344287,0.011868920803145265,10.814800421785796,0.604784411081266
151.0,21.14250326105706,0.4272987762859583,0.011865409110777117,10.814257939429918,0.604794020740231
152.0,21.146408154152375,0.42749994054595036,0.01186189742340085,10.813715382953013,0.6048033267848069
153.0,21.150313274726315,0.42770115514769214,0.011858385741934246,10.813172752390312,0.604812672937372
154.0,21.154218622332127,0.4279024200243626,0.0118548740536089,10.812630047776716,0.6048223805265254
155.0,21.158124196522415,0.42810373510901245,0.011851362349044858,10.812087269146915,0.604832499358635
156.0,21.162029996849117,0.42830510033457886,0.011847850650516436,10.811544416536417,0.6048416205325696
157.0,21.16593602286347,0.4285065156338809,0.011844338958555167,10.811001489980825,0.6048501337989544
158.0,21.169842274116043,0.4287079809396089,0.011840827274014682,10.810458489515822,0.6048587279596397
159.0,21.173748750156744,0.42890949618435154,0.011837315597722923,10.809915415177185,0.6048675521757366
160.0,21.17765545053478,0.42911106130056725,0.011833803930480858,10.809372267000779,0.6048765012142819
161.0,21.18156237479871,0.4293126762205995,0.0118302922720794,10.808829045022526,0.6048854508885277
162.0,21.18546952249639,0.42951434087667195,0.011826780622689183,10.808285749278431,0.6048942383622272
163.0,21.189376893175016,0.4297160552008871,0.011823268981871787,10.807742379804576,0.6049029295245193
164.0,21.193284486381096,0.4299178191252364,0.011819757349208305,10.807198936637139,0.6049117169786489
165.0,21.197192301660465,0.4301196325815915,0.011816245723621643,10.806655419812389,0.604920665699292
166.0,21.201100338558277,0.4303214955016949,0.011812734105905505,10.806111829366682,0.6049306168424078
167.0,21.205008596619006,0.4305234078171824,0.0118092224968235,10.805568165336464,0.6049408774314418
168.0,21.208917075386452,0.4307253694595666,0.011805710897107958,10.805024427758273,0.6049509170374422
169.0,21.212825774403726,0.4309273803602436,0.011802199305034879,10.804480616668751,0.6049607380766566
170.0,21.21673469321327,0.4311294404504893,0.011798687720898452,10.803936732104633,0.6049708300625951
171.0,21.220643831356824,0.4313315496614609,0.011795176145390211,10.803392774102742,0.6049806293577241
172.0,21.22455318837548,0.43153370792419815,0.01179166457916943,10.802848742699991,0.6049902672015123
173.0,21.22846276380961,0.43173591516962523,0.011788153022862364,10.802304637933391,0.6050003781479373
174.0,21.232372557198936,0.43193817132854023,0.011784641477061465,10.80176045984003,0.6050106160647498
175.0,21.23628256808248,0.43214047633162944,0.01178112994232468,10.8012162084571,0.6050209331393791
176.0,21.240192795998585,0.432342830109464,0.011777618419174902,10.800671883821874,0.6050316299603024
177.0,21.24410324048491,0.43254523259248684,0.011774106908099428,10.80012748597172,0.6050422470395809
178.0,21.24801390107843,0.4327476837110287,0.011770595409549443,10.799583014944098,0.6050526862594392
179.0,21.251924777315445,0.43295018339530317,0.011767083923939697,10.799038470776557,0.6050630834352732
180.0,21.255835868731552,0.4331527315754032,0.011763572451648153,10.79849385350674,0.6050725546414478
181.0,21.25974717486168,0.4333553281813025,0.011760060993015757,10.79794916317238,0.6050820211316624
182.0,21.263658695240064,0.43355797314286165,0.01175654954834626,10.797404399811303,0.6050934387045297
183.0,21.267570429400262,0.4337606663898177,0.011753038116686649,10.796859563461348,0.6051043158104622
184.0,21.271482376875124,0.4339634078517894,0.011749526600376288,10.796314654154775,0.6051145789513548
185.0,21.275394537196824,0.4341661974582805,0.011746015088077441,10.795769671929687,0.6051239170460365
186.0,21.279306909896857,0.4343690351386816,0.011742503580085143,10.795224616824276,0.6051334272996064
187.0,21.283219494506014,0.4345719208222533,0.011738992076670686,10.794679488876834,0.6051432518142155
188.0,21.287132290554403,0.4347748544381464,0.011735480578081582,10.79413428812574,0.605153075257124
189.0,21.291045297571443,0.4349778359153916,0.011731969079005233,10.793589014609454,0.6051630386176219
190.0,21.29495851508587,0.43518086518290167,0.011728457402744414,10.793043668366074,0.6051730292114219
191.0,21.29887194262573,0.435383942169474,0.011724945722393318,10.792498249434287,0.6051828681849232
192.0,21.302785579718368,0.43558706680378245,0.011721434038334262,10.791952757852865,0.60519251134897
193.0,21.30669942589046,0.43579023901438724,0.011717922350941915,10.791407193660685,0.6052016409480994
