k,PSNR,SSIM,mse,Log-Gradient,Angle
0.0,20.5564274465075,0.3975745340923567,0.0,10.895221187055961,0.6027865362429313
1.0,20.559624515504005,0.39773206313807036,0.010057322705619619,10.894778952703597,0.6031951707777902
2.0,20.56345567037356,0.39792306420543744,0.012224184520738672,10.894252486857106,0.6032149032692385
3.0,20.567317079330284,0.39811577912051477,0.012357548196322276,10.893722027170995,0.6032304535950446
4.0,20.571180799994117,0.39830867039282075,0.012368075661035316,10.893191210203243,0.60324161947048
5.0,20.575044570843474,0.3985016115540944,0.012365899522943799,10.892660338107891,0.6032524489305121
6.0,20.578908080821652,0.398694585044006,0.012361428538838681,10.89212945710771,0.6032633546790086
7.0,20.582771268551,0.3988875872511553,0.012356372033004012,10.891598577614216,0.6032742620151834
8.0,20.586634117327716,0.3990806170862728,0.012351097638825673,10.89106770335085,0.6032851493321554
9.0,20.5904966213731,0.3992736741163149,0.012345727294160664,10.89053683590929,0.603296065960703
10.0,20.594358777769422,0.3994667581045817,0.012340314064042986,10.890005976052041,0.6033070445164764
11.0,20.59822058529109,0.39965986893083616,0.012334871649882917,10.889475124327538,0.6033180732974252
12.0,20.602082043097813,0.3998530064946794,0.012329401200050782,10.888944281146872,0.6033291497134491
13.0,20.60594315043214,0.40004617070156795,0.012323913156119986,10.888413446799028,0.6033402441763281
14.0,20.609803906677314,0.4002393614623186,0.01231841805721715,10.887882621455717,0.6033513749958781
15.0,20.61366431119462,0.40043257868831644,0.012312918522438479,10.88735180525209,0.6033625879447785
16.0,20.617524363420042,0.4006258222957439,0.012307416771612963,10.886820998304588,0.603373780756785
17.0,20.621384062811483,0.40081909220189305,0.012301915482658998,10.886290200719387,0.6033849141496656
18.0,20.625243408756436,0.4010123883192607,0.012296412191706858,10.88575941262504,0.6033961086529763
19.0,20.629102400702955,0.40120571056470156,0.012290909942080491,10.885228634109502,0.6034072547047059
20.0,20.632961038119923,0.401399058856539,0.012285409103947306,10.884697865256202,0.6034184545436506
21.0,20.636819320477883,0.4015924331132426,0.012279909336215077,10.884167106154983,0.6034296086733656
22.0,20.64067724724863,0.4017858332533746,0.012274410799774779,10.883636356891026,0.6034407834638067
23.0,20.64453481790485,0.4019792591955516,0.012268913741869262,10.883105617542409,0.6034519654496281
24.0,20.648392031919855,0.40217271085841944,0.01226341766017574,10.882574888188126,0.6034631172925936
25.0,20.65224888876741,0.402366188160633,0.012257923145349557,10.882044168904175,0.6034742632387977
26.0,20.656105387921585,0.4025596910208451,0.012252429713378097,10.881513459769923,0.6034853480112515
27.0,20.659961528856673,0.40275321935768366,0.012246936201253904,10.880982760869639,0.6034963949847695
28.0,20.663817311047094,0.40294677308975274,0.012241443147280269,10.880452072282973,0.6035073608015975
29.0,20.667672733967333,0.40314035213563265,0.012235951622605625,10.879921394083972,0.6035183645175958
30.0,20.671527797091894,0.4033339564138571,0.012230461565286076,10.879390726346742,0.6035294635120031
31.0,20.6753824998953,0.40352758584292453,0.012224972490739552,10.878860069147063,0.6035405864380876
32.0,20.679236841852035,0.40372124034128726,0.01221948494695189,10.878329422558435,0.6035516582995076
33.0,20.683090822436515,0.4039149198273535,0.012213998893659846,10.877798786652992,0.6035626590701266
34.0,20.686944441123106,0.40410862421948696,0.012208513747742082,10.877268161497133,0.6035735844742719
35.0,20.690797697386078,0.40430235343600024,0.012203029583815255,10.876737547168647,0.6035845100301094
36.0,20.694650590699624,0.4044961073951529,0.012197546479984438,10.876206943743616,0.6035953902735095
37.0,20.698503120537843,0.4046898860151616,0.012192064108686188,10.875676351299653,0.6036061637830284
38.0,20.702355286374715,0.40488368921418894,0.012186582525653761,10.87514576991282,0.6036168499960001
39.0,20.706207087684135,0.40507751691034116,0.01218110243119452,10.874615199656018,0.6036274676150195
40.0,20.71005852393987,0.40527136902168187,0.01217562382475731,10.87408464060216,0.6036380025780052
41.0,20.713909594615558,0.4054652454662153,0.012170146705588891,10.873554092824168,0.6036484621410506
42.0,20.717760299184725,0.4056591461618971,0.012164671072766855,10.873023556394985,0.6036587938015486
43.0,20.721610637120765,0.40585307102662443,0.012159196925228629,10.87249303138757,0.6036689843157409
44.0,20.72546060789695,0.40604701997825415,0.012153724261796122,10.871962517874913,0.6036793596323714
45.0,20.729310210986426,0.40624099293457805,0.012148253081196377,10.871432015930022,0.6036896688102368
46.0,20.733159445862206,0.4064349898133415,0.012142783382079246,10.870901525625941,0.6036998673794565
47.0,20.737008311997187,0.4066290105322345,0.0121373151630322,10.87037104703574,0.6037102182286195
48.0,20.740856808864105,0.406823055008898,0.012131848396923297,10.869840580232026,0.6037203997754498
49.0,20.7447049359356,0.4070171231609183,0.01212638281856575,10.8693101252828,0.6037311634838555
50.0,20.748552692684164,0.40721121490582607,0.012120918709298382,10.868779682261236,0.6037430812583722
51.0,20.752400078582145,0.4074053301611064,0.012115456067879391,10.868249251240547,0.6037547559249132
52.0,20.75624709310179,0.4075994688441876,0.012109994893055857,10.867718832293983,0.6037662122767246
53.0,20.76009373571519,0.4077936308724452,0.012104535159737844,10.867188425494419,0.603777470163276
54.0,20.763940005894316,0.40798781616320384,0.012099076732990289,10.86665803091249,0.603788676894603
55.0,20.767785903111005,0.4081820246337386,0.012093619667714654,10.866127648620482,0.6037999606847727
56.0,20.77163142683696,0.4083762562012648,0.012088163970943838,10.865597278690819,0.6038113694458237
57.0,20.775476576543753,0.4085705107829593,0.012082709732850269,10.865066921196963,0.6038227919190653
58.0,20.779321351702826,0.408764788295934,0.01207725695252466,10.864536576212421,0.6038343555168337
59.0,20.783165751785496,0.4089590886572549,0.012071805537015489,10.864006243810108,0.6038459522024552
60.0,20.787009776262945,0.4091534117839382,0.012066355448660615,10.86347592406312,0.6038573625054507
61.0,20.790853424606244,0.40934775759294784,0.012060906556102806,10.86294561704743,0.6038683791477591
62.0,20.79469669628631,0.4095421260011907,0.01205545904259856,10.86241532283714,0.6038791738549087
63.0,20.79853959077395,0.4097365169255345,0.012050012994123664,10.861885041505882,0.6038896988392105
64.0,20.802382107539845,0.4099309302827853,0.012044568410368058,10.861354773127328,0.6039001349068517
65.0,20.80622424605455,0.41012536598970334,0.012039125291032494,10.860824517775187,0.6039105598331757
66.0,20.810066005788492,0.4103198239630017,0.012033683508877478,10.860294275524051,0.6039208601651869
67.0,20.813907386211966,0.41051430411933293,0.012028243167494004,10.859764046447845,0.603931084171968
68.0,20.817748386795152,0.41070880637530954,0.012022804293459102,10.859233830620367,0.6039412434078385
69.0,20.821589007008107,0.410903330647487,0.012017366886621653,10.858703628115453,0.6039513167486037
70.0,20.825429246320745,0.4110978768523765,0.012011930946841798,10.85817343900698,0.6039616213572064
71.0,20.82926910420289,0.4112924449064361,0.012006496473991414,10.85764326336887,0.6039723126448427
72.0,20.83310858012421,0.4114870347260749,0.012001063467954508,10.85711310127508,0.6039837308226644
73.0,20.836947673554278,0.411681646227652,0.011995631928627758,10.856582952799618,0.6039942768065482
74.0,20.840786383962513,0.4118762793274757,0.011990201855920967,10.856052818016526,0.6040037242752806
75.0,20.844624710818252,0.4120709339418129,0.011984773249757268,10.855522696999888,0.6040134047027393
76.0,20.848462653590687,0.4122656099868687,0.011979346110073561,10.854992589823834,0.6040233500298495
77.0,20.8523002117489,0.4124603073788129,0.011973920436820563,10.85446249656253,0.6040335416153492
78.0,20.856137384761837,0.4126550260337593,0.011968496229963224,10.853932417290187,0.6040432110726033
79.0,20.859974172098337,0.4128497658677668,0.011963073489480704,10.853402352081057,0.6040509921471098
80.0,20.863810573227127,0.4130445267968614,0.01195765221536662,10.85287230100943,0.6040608508488726
81.0,20.867646587616807,0.41323930873700987,0.011952232407629024,10.852342264149641,0.6040705294142271
82.0,20.87148221473587,0.41343411160413474,0.011946814066290626,10.851812241576065,0.6040798705148154
83.0,20.875317454052666,0.4136289353141076,0.011941397191388651,10.851282233363117,0.604088915331367
84.0,20.87915230503546,0.41382377978275864,0.011935981782975016,10.850752239585251,0.6040976531902836
85.0,20.882986767152385,0.4140186449258622,0.01193056784111617,10.850222260316968,0.6041062353154208
86.0,20.886820839871476,0.41421353065915073,0.011925155365893232,10.849692295632806,0.6041156404071767
87.0,20.890654522660608,0.41440843689830986,0.011919744357401802,10.849162345607342,0.6041254001920183
88.0,20.894487814987595,0.41460336355897326,0.011914334815752003,10.848632410315195,0.6041348859235874
89.0,20.898320716320118,0.4147983105567334,0.011908926741068256,10.848102489831028,0.6041441899513945
90.0,20.902153226125737,0.4149932778071313,0.011903520133489439,10.84757258422954,0.6041534352486139
91.0,20.905985343871905,0.41518826522566893,0.011898114993168509,10.847042693585474,0.6041627763511395
92.0,20.909817069025966,0.41538327272779035,0.011892711320272508,10.84651281797361,0.6041724495816555
93.0,20.91364840105515,0.41557830022890224,0.011887309114982463,10.84598295746877,0.6041826262935248
94.0,20.91747933942658,0.4157733476443642,0.011881908377493216,10.845453112145817,0.6041928633634338
95.0,20.92130988360726,0.41596841488948527,0.011876509108013194,10.844923282079654,0.6042032383859685
96.0,20.925140033064103,0.41616350187953327,0.011871111306764347,10.84439346734522,0.6042140852918151
97.0,20.92896978726389,0.416358608529731,0.011865714973981971,10.843863668017502,0.6042247653239968
98.0,20.932799145673307,0.4165537347552533,0.011860320105920964,10.843333884171516,0.60423521217225
99.0,20.936628107758928,0.4167488804712276,0.011854926697809107,10.842804115882322,0.6042454347266899
100.0,20.940456672987224,0.4169440455927413,0.01184953475004132,10.842274363225018,0.6042554049266674
101.0,20.94428484082455,0.41713923003483383,0.011844144263038418,10.841744626274735,0.6042652578949493
102.0,20.948112610737173,0.41733443371250356,0.011838755237246793,10.84121490510665,0.6042749985710941
103.0,20.951939982191238,0.4175296565406977,0.01183336767313774,10.840685199795974,0.6042848420326848
104.0,20.9557669546528,0.4177248984343264,0.0118279815692858,10.840155510417965,0.6042953173879333
105.0,20.959593527587774,0.4179201593082506,0.011822596924617776,10.839625837047926,0.6043057858280896
106.0,20.96341970046202,0.418115439077285,0.011817213739721026,10.839096179761194,0.6043160895613701
107.0,20.967245472741254,0.41831073765620985,0.011811832015209276,10.838566538633149,0.6043265466040676
108.0,20.971070843891123,0.41850605495975435,0.011806451751721831,10.838036913739204,0.6043369074922303
109.0,20.97489581337715,0.41870139090260466,0.011801072948591822,10.837507305154817,0.6043471246963452
110.0,20.978720380664765,0.4188967453994059,0.01179569560547991,10.836977712955484,0.6043576011118751
111.0,20.982544545219284,0.41909211836475707,0.011790319723220243,10.836448137216742,0.6043681819387345
112.0,20.98636830650594,0.41928750971322054,0.01178494530267275,10.83591857801416,0.6043788421306812
113.0,20.99019166398987,0.41948291935930476,0.011779572344721993,10.835389035423345,0.6043898326888401
114.0,20.994014617136077,0.4196783472174846,0.011774200850276154,10.834859509519939,0.6044009017994791
115.0,20.99783716540951,0.4198737932021945,0.011768830819708776,10.83433000037961,0.604411917828258
116.0,21.00165930827499,0.4200692572278135,0.011763462253686671,10.83380050807806,0.6044217511231708
117.0,21.005481045197257,0.4202647392086938,0.011758095153286484,10.833271032691021,0.6044324456904865
118.0,21.009302375640935,0.4204602390591345,0.011752729519602993,10.83274157429427,0.604443699660448
119.0,21.01312329907058,0.4206557566933998,0.01174736535374762,10.832212132963614,0.604454255530526
120.0,21.01694381495062,0.4208512920257054,0.01174200265684715,10.831682708774899,0.604464635148087
121.0,21.02076392274541,0.42104684497023487,0.011736641430042162,10.831153301804012,0.6044749798872967
122.0,21.024583621919213,0.4212424154411223,0.01173128167448559,10.830623912126871,0.6044853594372165
123.0,21.028402911936173,0.4214380033524608,0.01172592339134131,10.830094539819433,0.6044956031269063
124.0,21.03222179226037,0.4216336086183137,0.01172056658178252,10.829565184957692,0.6045054640559621
125.0,21.036040262355765,0.4218292311526884,0.01171521124699045,10.82903584761768,0.6045149184145848
126.0,21.039858321686257,0.4220248708695598,0.011709857388152651,10.828506527875463,0.6045242536473165
127.0,21.04367596971563,0.4222205276828614,0.011704505006461672,10.827977225807146,0.6045338618556434
128.0,21.04749320590757,0.42241620150648473,0.011699154103113434,10.82744794148887,0.6045442305147685
129.0,21.051310029725705,0.42261189225428514,0.011693804679305756,10.826918674996815,0.6045542772295915
130.0,21.055126440633543,0.4228075998400737,0.0116884567362369,10.826389426407191,0.6045646257192735
131.0,21.058942438094515,0.4230033241776247,0.011683110275103974,10.825860195796254,0.6045757447537733
132.0,21.062758021571963,0.4231990651806736,0.011677765297101506,10.825330983240292,0.6045854902979769
133.0,21.06657319052914,0.42339482276291057,0.011672421803419968,10.82480178881563,0.6045950085810247
134.0,21.070387944429207,0.42359059683799244,0.011667079795244187,10.824272612598628,0.6046045233401517
135.0,21.074202282735243,0.42378638731953705,0.011661739273751977,10.823743454665687,0.6046138727671565
136.0,21.078016204910245,0.42398219412111837,0.011656400240112616,10.823214315093242,0.6046231749228198
137.0,21.081829710417118,0.4241780171562768,0.01165106269548549,10.822685193957764,0.6046324255296442
138.0,21.085642798718677,0.4243738563385129,0.011645726641018518,10.822156091335764,0.6046412837250595
139.0,21.089455469277667,0.42456971158128914,0.01164039207784684,10.821627007303785,0.6046500098972499
140.0,21.093267721556728,0.4247655827980264,0.011635059006182093,10.821097941938413,0.6046618666606559
141.0,21.097079555018446,0.42496146990211425,0.011629727424140267,10.820568895316239,0.6046717616796368
142.0,21.100890969125288,0.4251573728068963,0.011624397332648527,10.820039867513891,0.6046807302118539
143.0,21.10470196333967,0.42535329142568584,0.011619068732861792,10.819510858608028,0.6046884885247689
144.0,21.108512537123914,0.4255492256717556,0.011613741619676059,10.818981868675094,0.6046985456098266
145.0,21.11232268994026,0.4257451754583382,0.011608415963288203,10.818452897790385,0.604708110575967
146.0,21.11613242125086,0.4259411406986366,0.011603091796266096,10.817923946030524,0.6047179187002621
147.0,21.1199417305178,0.42613712130580855,0.01159776912354077,10.817395013472279,0.6047276225119086
148.0,21.123750617203076,0.42633311719298267,0.011592447946205332,10.816866100192454,0.604737867723805
149.0,21.127559080768616,0.42652912827324324,0.011587128265334055,10.816337206267884,0.6047495051748072
150.0,21.131367120676252,0.42672515445964504,0.011581810081980793,10.815808331775441,0.6047614946484343
151.0,21.135174736387764,0.426921195665205,0.011576493397177704,10.815279476792028,0.6047736122642863
152.0,21.138981927364824,0.42711725180289895,0.011571178211578903,10.81475064139459,0.604784824941868
153.0,21.142788693069072,0.42731332278567596,0.011565864521272819,10.814221825660143,0.604794140656609
154.0,21.146595032962008,0.42750940852644165,0.011560552326308473,10.813693029665743,0.6048032014240095
155.0,21.150400946505115,0.4277055089380704,0.011555241614935392,10.813164253488102,0.6048122977808008
156.0,21.15420643315978,0.4279016239334002,0.011549932375306856,10.81263549720361,0.6048217415797178
157.0,21.15801149238731,0.42809775342523076,0.011544624633269482,10.812106760889428,0.6048315836490628
158.0,21.161816123648947,0.42829389732633244,0.011539318387621227,10.811578044622767,0.604840596882934
159.0,21.165620326405865,0.428490055549438,0.01153401363929042,10.811049348480866,0.604848891987768
160.0,21.169424100119144,0.42868622800724543,0.01152871038917968,10.810520672541003,0.6048572501441756
161.0,21.173227444249818,0.42888241461241994,0.01152340863816455,10.809992016880486,0.604865781148222
162.0,21.17703035825885,0.42907861527758856,0.011518108386765282,10.80946338157665,0.6048745000351401
163.0,21.180832841607106,0.42927482991535154,0.011512809634595396,10.808934766706834,0.6048832227304078
164.0,21.1846348937554,0.4294710584382697,0.011507512382447871,10.808406172348413,0.6048918055661657
165.0,21.188436514164486,0.429667300758872,0.011502216630363143,10.807877598578788,0.6049003149269059
166.0,21.192237702295035,0.42986355678964955,0.011496922377776142,10.807349045475398,0.6049087267666599
167.0,21.196038457607646,0.43005982644306945,0.011491629623509225,10.806820513115719,0.6049173952777006
168.0,21.19983877956287,0.43025610963155797,0.011486338368391085,10.806292001577258,0.6049266722840841
169.0,21.20363866762117,0.43045240626751013,0.0114810486132196,10.80576351093756,0.6049365706266258
170.0,21.207438121242962,0.4306487162632909,0.011475760358761033,10.805235041274202,0.6049464397614851
171.0,21.211237139888574,0.430845039531232,0.011470473603850277,10.804706592664804,0.604956003136506
172.0,21.215035723018293,0.43104137598362596,0.011465188348351217,10.80417816518703,0.6049657005681651
173.0,21.218833870092322,0.43123772553274664,0.01145990459298622,10.80364975891858,0.6049753557891658
174.0,21.22263158057082,0.43143408809082046,0.011454622338445467,10.803121373937179,0.604984747533638
175.0,21.226428853913855,0.431630463570056,0.011449341585386255,10.802593010320592,0.6049942536646116
176.0,21.230225689581466,0.4318268518826222,0.011444062334432346,10.802064668146619,0.6050041150347648
177.0,21.2340220870336,0.432023252940654,0.011438784586173489,10.801536347493087,0.605014065011611
178.0,21.237818045730155,0.4322196666562664,0.011433508341164918,10.801008048437861,0.6050242759564818
179.0,21.241613565130976,0.43241609294153177,0.011428233599926955,10.800479771058841,0.6050346301387842
180.0,21.245408644695832,0.43261253170849745,0.01142296036294476,10.799951515433959,0.6050449165476018
181.0,21.249203283884444,0.43280898286918124,0.011417688630667926,10.799423281641179,0.6050550438106989
182.0,21.252997482156474,0.433005446335562,0.011412418403510408,10.7988950697585,0.6050652227763594
183.0,21.25679123897151,0.4332019220196012,0.011407149681850413,10.798366879863956,0.6050749209930395
184.0,21.260584553789105,0.43339840983321637,0.011401882466030166,10.797838712035611,0.6050829140478858
185.0,21.26437742606874,0.4335949096883089,0.011396616683807339,10.79731056634781,0.6050942974710191
186.0,21.268169855269832,0.43379142149673705,0.01139135236144305,10.796782442876735,0.6051050037343787
187.0,21.271961840851766,0.4339879451703417,0.01138608953540429,10.796254341700548,0.6051149980003953
188.0,21.275753382273823,0.43418448062092835,0.01138082820605401,10.795726262897457,0.6051240807797749
189.0,21.27954447899528,0.4343810277602673,0.011375568373732822,10.7951982065457,0.6051331773664812
190.0,21.283335130475333,0.43457758650011263,0.01137031003875871,10.794670172723551,0.6051426849835498
191.0,21.287125336173123,0.43477415675217945,0.011365053108214913,10.794142161509074,0.60515217359497
192.0,21.290915095547753,0.43497073842815775,0.011359797567174843,10.793614172980375,0.6051617987704322
193.0,21.294704408058255,0.43516733143971303,0.01135454351526176,10.793086207215847,0.6051714474125972
