k,PSNR,SSIM,mse,Log-Gradient,Angle
0.0,20.349461691501883,0.3755423329492484,0.0,10.911541824339754,0.6009873566987051
1.0,20.352630174282716,0.37569437396348393,0.010171058255002401,10.91110124812039,0.6025246574466989
2.0,20.356388338887328,0.3758766407209135,0.012244116886537251,10.910581685291342,0.602543668706662
3.0,20.360173840826366,0.3760604252637311,0.012369383589132513,10.910058457808066,0.6025566287427624
4.0,20.36396149318364,0.3762443776159579,0.012379305809059667,10.909534891926091,0.6025673192959888
5.0,20.36774930589777,0.3764283896229174,0.01237747575363461,10.909011259854383,0.6025807736412115
6.0,20.371536984218007,0.3766124451674184,0.012373442592775428,10.908487603753565,0.602590831138267
7.0,20.37532446123375,0.3767965405464593,0.012368748186192179,10.907963935263691,0.6026027042110965
8.0,20.379111721899523,0.3769806748020407,0.012363867704966378,10.907440257471913,0.6026144680372698
9.0,20.382898760047258,0.37716484755029395,0.012358874216167102,10.906916571936726,0.6026265425879922
10.0,20.386685573368073,0.3773490586154911,0.012353837574105471,10.906392879322176,0.6026383963950385
11.0,20.390472160552747,0.37753330787921185,0.012348775321304467,10.90586918007931,0.6026499680678262
12.0,20.394258520658845,0.37771759523912135,0.012343700149663472,10.905345474505307,0.6026612772107051
13.0,20.398044652999058,0.37790192061805344,0.012338609540784888,10.904821762898656,0.6026723616439206
14.0,20.401830556964992,0.3780862839439246,0.012333511758266165,10.904298045465639,0.6026833168234446
15.0,20.405616232045126,0.37827068515288703,0.012328408140446516,10.903774322348161,0.6026942150321252
16.0,20.409401677778686,0.3784551241815182,0.012323302188842183,10.903250593654066,0.6027050993839466
17.0,20.41318689370925,0.3786396009668096,0.012318194955746107,10.902726859486254,0.6027159835260983
18.0,20.41697187938351,0.3788241154460317,0.01231308397431771,10.902203119942973,0.60272686629426
19.0,20.42075663435037,0.3790086675566327,0.012307973443654982,10.901679375108841,0.6027376790818306
20.0,20.424541158160263,0.37919325723618535,0.012302863690468823,10.901155625059706,0.602748440023463
21.0,20.428325450364756,0.379377884422321,0.012297751259798028,10.90063186985559,0.6027590865351026
22.0,20.432109510516135,0.37956254905271375,0.012292638296768417,10.90010810956557,0.6027696291165167
23.0,20.435893338167247,0.3797472510650306,0.012287526291975834,10.899584344256636,0.6027800899589492
24.0,20.439676932871322,0.37993199039694053,0.012282415126719924,10.899060573995872,0.6027905252214362
25.0,20.44346029418184,0.38011676698608693,0.01227730430763878,10.898536798852145,0.6028009811176124
26.0,20.447243421652455,0.38030158077007675,0.012272194404843118,10.898013018882985,0.6028115130497921
27.0,20.45102631483691,0.38048643168647583,0.012267084760857746,10.897489234164173,0.602822017126108
28.0,20.454808973288987,0.38067131967280576,0.012261975941918217,10.896965444764017,0.6028324613075328
29.0,20.458591396562475,0.3808562446665385,0.012256868005673044,10.896441650747837,0.6028428632446664
30.0,20.462373584211115,0.3810412066050861,0.012251761262161818,10.895917852178947,0.6028531958468982
31.0,20.466155535788605,0.381226205425808,0.012246655715781969,10.895394049120497,0.6028634862325716
32.0,20.469937250848545,0.3814112410660017,0.01224155136959927,10.894870241635523,0.6028737641542595
33.0,20.473718728944462,0.3815963134629099,0.012236448225612232,10.894346429786971,0.6028839653106118
34.0,20.47749996962977,0.38178142255370434,0.012231346284958679,10.893822613637717,0.6028940870344041
35.0,20.481280972457757,0.38196656827550557,0.01222624551129188,10.893298793250432,0.6029042134780155
36.0,20.485061736981613,0.38215175056535894,0.012221145564997609,10.892774968686911,0.6029142538202333
37.0,20.488842262754385,0.38233696936025235,0.012216046054082145,10.892251140012446,0.6029242868415298
38.0,20.492622549328985,0.38252222459710805,0.012210947295564717,10.891727307289159,0.602934425210062
39.0,20.496402596258193,0.3827075162127845,0.01220584953972977,10.8912034705803,0.6029445353379507
40.0,20.500182403094634,0.3828928441440717,0.012200752604046829,10.89067962994972,0.6029546957433647
41.0,20.50396196939081,0.3830782083276953,0.012195656857101127,10.890155785460005,0.6029647966283455
42.0,20.50774129469907,0.38326360870031534,0.012190562299170486,10.88963193717376,0.6029747739843706
43.0,20.511520378571614,0.38344904519852685,0.012185468930385239,10.88910808515361,0.6029846455924366
44.0,20.515299220560497,0.38363451775886054,0.012180376750750706,10.888584229462205,0.6029944782225858
45.0,20.519077820217632,0.38382002631777506,0.012175285760166823,10.888060370162217,0.603004357630569
46.0,20.522856177094773,0.38400557081167,0.012170195958444584,10.887536507316355,0.6030142693839146
47.0,20.526634290743523,0.3841911511768741,0.012165107345320286,10.88701264098735,0.6030241100457853
48.0,20.53041216071534,0.38437676734965204,0.012160019920467249,10.886488771237977,0.6030339086753713
49.0,20.534189786561534,0.38456241926619966,0.01215493345722132,10.885964898131963,0.6030436636854227
50.0,20.53796716783326,0.38474810686264904,0.012149848175347594,10.88544102173215,0.60305336605205
51.0,20.541744304081515,0.38493383007506726,0.012144764079165262,10.884917142101393,0.6030632213781347
52.0,20.54552119485715,0.3851195888394549,0.012139681143087307,10.884393259302586,0.6030731816648084
53.0,20.549297839710874,0.38530538309174317,0.012134599240173814,10.883869373398664,0.6030831431121445
54.0,20.553074238193236,0.3854912127677994,0.01212951851996012,10.883345484452589,0.6030930882932449
55.0,20.556850389854624,0.3856770778034284,0.012124438982234574,10.882821592527359,0.60310310779656
56.0,20.560626294245292,0.38586297813436127,0.012119360626774071,10.882297697686015,0.6031133045415462
57.0,20.56440195091534,0.38604891369627126,0.012114283453346744,10.881773799991642,0.6031234609979834
58.0,20.5681773594147,0.38623488442475873,0.012109207461714592,10.881249899507356,0.6031338815619646
59.0,20.571952519293166,0.38642089025536586,0.012104132651635815,10.880725996296324,0.6031442510013927
60.0,20.57572743010038,0.3866069311235612,0.012099059022866858,10.880202090421749,0.6031546682734391
61.0,20.57950209138584,0.38679300696475477,0.012093986575164379,10.879678181946876,0.6031649766157202
62.0,20.583276502698876,0.3869791177142892,0.012088915308286687,10.879154270934993,0.6031751541095952
63.0,20.587050663588677,0.38716526330743456,0.01208384522199535,10.87863035744943,0.6031852094055655
64.0,20.59082457360428,0.3873514436794063,0.012078776316056375,10.878106441553559,0.6031952730200221
65.0,20.594598232294572,0.38753765876535246,0.012073708590241292,10.877582523310792,0.6032054136071768
66.0,20.59837163920831,0.38772390850034516,0.012068642044328204,10.877058602784588,0.6032156603796959
67.0,20.602144793894066,0.38791019281940403,0.012063576678102567,10.876534680038445,0.6032259473343066
68.0,20.605917695900295,0.3880965116574842,0.012058512491357967,10.876010755135901,0.6032362985051963
69.0,20.60969034477528,0.3882828649494632,0.012053449483896883,10.875486828140545,0.6032467055156349
70.0,20.61346274006717,0.3884692526301627,0.012048387655531137,10.874962899116,0.603257509528475
71.0,20.617234881323967,0.3886556746343437,0.012043326885387177,10.874438968125569,0.6032682170959199
72.0,20.621006768093515,0.388842130896688,0.012038267212484063,10.873915035233239,0.6032795746392482
73.0,20.62477839992352,0.3890286213518311,0.01203320870109935,10.873391100502817,0.6032908297412519
74.0,20.62854977636155,0.3892151459343291,0.012028151371327532,10.872867163998086,0.6033018334975262
75.0,20.632320896955008,0.3894017045786815,0.012023095165651273,10.872343225783176,0.6033125499423567
76.0,20.636091761251176,0.3895882972193239,0.012018040108233142,10.871819285922129,0.6033229835891435
77.0,20.63986236879717,0.3897749237906216,0.012012986236852052,10.87129534447882,0.6033336015166081
78.0,20.64363271913997,0.3899615842268776,0.012007933551500217,10.870771401517178,0.6033438043023686
79.0,20.6474028118264,0.39014827846233757,0.012002882052172568,10.870247457101172,0.6033540165562233
80.0,20.651172646403158,0.3903350064311772,0.011997831733878356,10.869723511294579,0.6033655084278221
81.0,20.654942222416786,0.39052176806750816,0.011992782559190339,10.869199564159517,0.6033764834894607
82.0,20.658711539413687,0.3907085633053781,0.011987734569116457,10.868675615760097,0.6033870615227228
83.0,20.662480596940107,0.3908953920787759,0.011982687763715371,10.868151666160466,0.6033976888762392
84.0,20.666249394542163,0.39108225432162236,0.011977642143048634,10.867627715424826,0.6034081666294288
85.0,20.670017931765827,0.3912691499677743,0.011972597707180902,10.867103763617411,0.6034184686362515
86.0,20.673786208156923,0.39145607895103146,0.011967554456179984,10.86657981080251,0.6034286198207353
87.0,20.677554223261147,0.3916430412051186,0.01196251239011677,10.866055857044447,0.6034386132378858
88.0,20.68132197662404,0.39183003666371247,0.011957471509065083,10.865531902407602,0.6034485008110518
89.0,20.685089467791013,0.3920170652604122,0.011952431810654026,10.865007946956393,0.6034582406280099
90.0,20.68885669630732,0.3922041269287637,0.011947393286641857,10.864483990755309,0.6034676961788876
91.0,20.692623661718095,0.39239122160224404,0.011942355937147715,10.86396003386888,0.6034768350536951
92.0,20.696390363568327,0.39257834921427276,0.011937319762303143,10.863436076361682,0.6034875640419388
93.0,20.700156801402862,0.3927655096982037,0.011932284762251864,10.862912118298329,0.6034980415850048
94.0,20.703922974766407,0.3929527029873257,0.011927250937149783,10.862388159743485,0.6035081797050686
95.0,20.70768888320353,0.39313992901487343,0.011922218287164789,10.861864200761852,0.6035182432008211
96.0,20.711454526258674,0.3933271877140098,0.01191718681247667,10.861340241418175,0.6035282852257227
97.0,20.71521990347613,0.39351447901783904,0.011912156513276897,10.860816281777243,0.6035385967145338
98.0,20.71898501440006,0.3937018028594024,0.01190712738976847,10.860292321903891,0.6035494208258405
99.0,20.722749858574478,0.3938891591716837,0.01190209943963338,10.859768361863003,0.6035603340507438
100.0,20.72651443554328,0.39407654788759716,0.011897072662446403,10.85924440171951,0.6035708954327568
101.0,20.730278744850214,0.39426396894000443,0.011892047002372865,10.858720441538624,0.6035808901514419
102.0,20.7340427860389,0.39445142226169394,0.011887022514364824,10.858196481385361,0.6035905870747976
103.0,20.737806558652828,0.3946389077854014,0.011881999200494174,10.857672521324771,0.6036003723150112
104.0,20.741570062235333,0.3948264254437994,0.011876977061164784,10.85714856142194,0.6036104234081782
105.0,20.74533329632964,0.39501397516949294,0.01187195609679336,10.856624601742006,0.6036206489667838
106.0,20.749096260478836,0.39520155689503644,0.011866936307809198,10.85610064235014,0.6036312909243955
107.0,20.752858954225857,0.39538917055291384,0.011861917694653928,10.855576683311558,0.6036420143549434
108.0,20.75662137711354,0.39557681607554646,0.011856900257781073,10.855052724691516,0.60365275500424
109.0,20.760383528684546,0.39576449339531045,0.011851883997655998,10.854528766555315,0.6036637624052944
110.0,20.764145408481443,0.39595220244449775,0.01184686891475529,10.854004808968293,0.603674903533852
111.0,20.76790701604665,0.3961399431553594,0.011841855009566799,10.85348085199583,0.6036859757445754
112.0,20.771668350922454,0.39632771546007106,0.011836842282588845,10.85295689570335,0.6036968638480993
113.0,20.77542941265101,0.39651551929076007,0.011831830734330324,10.852432940156314,0.6037074359256461
114.0,20.77919020077436,0.39670335457948297,0.011826820365310044,10.851908985420229,0.6037177519250534
115.0,20.78295071483439,0.3968912212582442,0.011821811176056482,10.851385031560637,0.6037280851947989
116.0,20.786710954372882,0.3970791192589808,0.01181680316710741,10.850861078643126,0.6037385662856817
117.0,20.79047091893148,0.39726704851357547,0.011811796339009499,10.850337126733322,0.6037488859959111
118.0,20.79423060805169,0.39745500895384717,0.01180679069064766,10.84981317589689,0.6037591499121706
119.0,20.797990021274902,0.3976430005115503,0.011801786220686889,10.84928922619953,0.6037692849832182
120.0,20.801749158142364,0.39783102311839197,0.01179678292986186,10.848765277706988,0.6037791359799143
121.0,20.80550801819523,0.3980190767060065,0.011791780818920012,10.848241330485042,0.6037888159584266
122.0,20.809266600974485,0.3982071612059788,0.011786779888620622,10.847717384599514,0.6037983143195138
123.0,20.813024906021013,0.39839527654982526,0.011781780139733942,10.847193440116268,0.6038082981829186
124.0,20.81678293287557,0.3985834226690094,0.011776781573040416,10.846669497101205,0.603819293370748
125.0,20.820540681078782,0.39877159949493396,0.011771784161463147,10.84614555561597,0.6038303543969937
126.0,20.82429815017114,0.3989598069589413,0.011766787931742951,10.845621615726547,0.6038416384226742
127.0,20.828055339693023,0.39914804499231105,0.01176179288473977,10.845097677498964,0.6038528395933916
128.0,20.831812249184676,0.39933631352626864,0.011756799021294272,10.844573740999294,0.6038640893794885
129.0,20.835568878186233,0.39952461249198395,0.011751806342253753,10.844049806293645,0.6038753337043467
130.0,20.839325226237687,0.39971294182055744,0.01174681484847127,10.84352587344817,0.6038866109052826
131.0,20.84308129287892,0.39990130144303765,0.011741824540804824,10.843001942529058,0.6038983104864235
132.0,20.846837077649695,0.4000896912904164,0.011736835420116248,10.842478013602545,0.6039102974039957
133.0,20.850592580089643,0.40027811129361934,0.011731847487270249,10.841954086734901,0.6039221288612564
134.0,20.854347799738274,0.4004665613835226,0.01172686074313336,10.84143016199244,0.6039337354342572
135.0,20.858102736134988,0.4006550414909404,0.011721875185745937,10.84090623944153,0.6039452037162009
136.0,20.861857388819054,0.4008435515466242,0.011716890812934323,10.840382319148596,0.6039563819605949
137.0,20.86561175732963,0.4010320914812726,0.011711907607241397,10.839858401179203,0.603967345698042
138.0,20.869365841205735,0.4012206612255282,0.011706925569703727,10.839334485599004,0.6039780454865534
139.0,20.873119639986285,0.40140926070996863,0.01170194471864348,10.838810572474548,0.603988753277411
140.0,20.876873153210077,0.40159788986512024,0.011696965055117504,10.838286661872429,0.6040002337683867
141.0,20.88062638041578,0.40178654862144475,0.011691986580185037,10.837762753859279,0.6040113990839276
142.0,20.884379321141946,0.4019752369093543,0.011687009294673683,10.837238848501768,0.604022256956268
143.0,20.888131974927017,0.40216395465920146,0.011682033196591182,10.836714945866637,0.60403293901824
144.0,20.891884341309314,0.40235270180127775,0.011677058287022734,10.836191046020671,0.6040434598738865
145.0,20.89563641982704,0.40254147826581793,0.011672084567054092,10.835667149030687,0.6040537796854608
146.0,20.899388210018273,0.4027302839830003,0.011667112037770306,10.835143254963548,0.6040637094275965
147.0,20.903139711421,0.40291911888295634,0.011662140700254394,10.83461936388615,0.604074461927593
148.0,20.906890923573066,0.4031079828957385,0.011657170555586106,10.834095475865436,0.6040844361558622
149.0,20.91064184601221,0.40329687595136604,0.01165220160419093,10.833571590968388,0.6040943719008748
150.0,20.914392478276067,0.40348579797978706,0.01164723384571252,10.83304770926203,0.6041043545334664
151.0,20.91814281990214,0.40367474891089755,0.011642267281221842,10.832523830813422,0.6041149738161816
152.0,20.92189287042784,0.4038637286745355,0.011637301911783061,10.831999955689671,0.6041257182019812
153.0,20.92564262939043,0.4040527372004868,0.011632337735760301,10.831476083957925,0.6041362458057352
154.0,20.929392096327106,0.40424177441847475,0.01162737474757557,10.83095221568529,0.6041465720250699
155.0,20.93314127077491,0.4044308402581727,0.01162241292176888,10.830428350936627,0.6041568002732574
156.0,20.936890152270795,0.40461993464919005,0.011617452286945853,10.82990448977922,0.604166860294462
157.0,20.94063874035158,0.4048090575210919,0.011612492836385296,10.829380632279973,0.6041769946838338
158.0,20.944387034553994,0.4049982088033773,0.011607534549316968,10.82885677850462,0.6041871015468087
159.0,20.94813503441464,0.40518738842549223,0.011602577429084703,10.828332928519362,0.60419713864878
160.0,20.95188273947002,0.40537659631683276,0.011597621493869843,10.82780908239123,0.6042070979979153
161.0,20.955630149256503,0.4055658324067319,0.01159266674310766,10.827285240186836,0.6042171666469449
162.0,20.959377263310376,0.4057550966244745,0.011587713172279175,10.826761401972398,0.6042281193963736
163.0,20.963124081167802,0.40594438889927814,0.01158276079918536,10.826237567815534,0.6042397381940113
164.0,20.966870602364832,0.40613370916032254,0.011577809610610942,10.825713737783403,0.6042509849202266
165.0,20.97061682643741,0.4063230573367222,0.011572859600379766,10.82518991194296,0.6042617122724082
166.0,20.97436275292138,0.40651243335753295,0.011567910791069566,10.82466609036197,0.6042723844093992
167.0,20.97810838135246,0.40670183715175945,0.011562963183735737,10.824142273108231,0.604283031664641
168.0,20.981853711266293,0.4068912686483633,0.011558016779413347,10.823618460249591,0.60429364149002
169.0,20.985598742198377,0.4070807277762327,0.011553071579115814,10.82309465185394,0.6043040908561182
170.0,20.989343473684137,0.4072702144642136,0.011548127583833842,10.822570847989212,0.604314286948154
171.0,20.99308790525887,0.40745972864109464,0.01154318479453439,10.82204704872338,0.6043243443875379
172.0,20.996832036457775,0.4076492702356065,0.011538243212159698,10.821523254124468,0.6043343474300432
173.0,21.00057586681594,0.40783883917643676,0.011533302837626174,10.82099946426054,0.6043447028398318
174.0,21.00431939586837,0.40802843539220585,0.01152836367182363,10.820475679199705,0.604355582843321
175.0,21.00806262314994,0.40821805881148737,0.011523425715614237,10.819951899010114,0.6043663191278759
176.0,21.01180554819543,0.40840770936280046,0.011518488969831774,10.819428123759968,0.6043767847585306
177.0,21.01554817053952,0.4085973869746103,0.011513553435280823,10.818904353517507,0.6043871438400915
178.0,21.019290489716795,0.4087870915753311,0.011508619112735948,10.818380588351017,0.6043977407607964
179.0,21.023032505261714,0.40897682309332173,0.011503686002941087,10.81785682832883,0.6044087947344169
180.0,21.02677421670865,0.4091665814568783,0.011498754104838107,10.817333073519313,0.6044202445444807
181.0,21.030515623591874,0.40935636659426483,0.011493823419004436,10.816809323990872,0.6044316035569107
182.0,21.03425672544555,0.4095461784336704,0.0114888939461077,10.816285579811963,0.604443264018113
183.0,21.037997521803756,0.40973601690325046,0.011483965686784163,10.815761841051083,0.6044547964821887
184.0,21.041738012200447,0.40992588193109164,0.011479038641638266,10.815238107776779,0.6044665140155777
185.0,21.04547819616949,0.4101157734452398,0.011474112811242021,10.814714380057637,0.6044783260064854
186.0,21.04921807324466,0.4103056913736796,0.011469188196134827,10.814190657962298,0.6044907918591237
187.0,21.052957642959615,0.41049563564435004,0.011464264796822934,10.813666941559438,0.6045029139338579
188.0,21.05669690484792,0.41068560618513206,0.01145934261377927,10.813143230917785,0.6045146235102191
189.0,21.06043585844306,0.41087560292386094,0.011454421647443085,10.812619526106111,0.6045259243785046
190.0,21.064174503278398,0.41106562578831274,0.011449501898219862,10.812095827193232,0.6045369452844044
191.0,21.06791283888721,0.41125567470621727,0.011444583323490989,10.811572134248886,0.6045477285529831
192.0,21.071650864802677,0.4114457496052502,0.011439665898959788,10.811048447341848,0.6045587308074067
193.0,21.075388580557878,0.4116358504130364,0.011434749672451242,10.810524766540693,0.6045699310023922
