k,PSNR,SSIM,mse,Log-Gradient,Angle
0.0,20.349461691501883,0.3755423329492484,0.0,10.911541824339754,0.6009873566987051
1.0,20.352629822340628,0.37569435707348053,0.010169928639469606,10.911101297060654,0.6025246562245378
2.0,20.356387217511394,0.3758765866811807,0.012241642645204212,10.910581840903808,0.6025436655978934
3.0,20.360171529421827,0.37606031363140363,0.012365541483305648,10.910058778253845,0.6025566210248406
4.0,20.363957570874106,0.37624418791633557,0.012374091950220654,10.90953543542211,0.6025673070276152
5.0,20.3677433517435,0.3764281013613567,0.012370890308916652,10.909012084643335,0.6025807541292031
6.0,20.371528577247933,0.3766120378310986,0.012365486500108045,10.908488768099238,0.6025908053072716
7.0,20.375313180453198,0.3767959936048259,0.012359422594347023,10.907965497449606,0.6026026716409142
8.0,20.379097146292132,0.37697996770693704,0.012353173846858367,10.907442275800923,0.6026144270395124
9.0,20.38288046857589,0.37716395973605005,0.01234681334155861,10.906919104730795,0.6026264910368265
10.0,20.386663144975465,0.37734796949897015,0.012340410953116356,10.906395984922248,0.6026383326148211
11.0,20.39044517416184,0.37753199685984756,0.012333984229816929,10.905872916845237,0.6026498910699237
12.0,20.39422655517332,0.37771604169898776,0.012327545869941383,10.905349900815752,0.6026611862335777
13.0,20.398007287303628,0.3779001039218801,0.012321093353624215,10.90482693715105,0.6026722554280156
14.0,20.401787369925778,0.37808418343916567,0.012314634948596368,10.904304026076094,0.602683195559142
15.0,20.40556680251008,0.3782682801697479,0.012308171992547197,10.903781167751424,0.6026940748486138
16.0,20.409345584577892,0.37845239403299624,0.012301707989899087,10.903258362303472,0.6027049415405804
17.0,20.41312371565529,0.3786365249487405,0.012295243991693688,10.902735609853684,0.6027158038980434
18.0,20.416901195271834,0.3788206728371281,0.012288777529795113,10.902212910518806,0.6027266642347041
19.0,20.420678022959628,0.3790048376185344,0.01228231280649707,10.901690264401903,0.6027374557522727
20.0,20.424454198252672,0.3791890192134824,0.012275850147842554,10.901167671597234,0.6027481931763793
21.0,20.428229720686456,0.3793732175426185,0.012269386093601632,10.900645132183188,0.6027588172684103
22.0,20.432004589797547,0.3795574325266487,0.012262922794509119,10.900122646247167,0.602769335917411
23.0,20.435778805123412,0.3797416640863403,0.01225646174022241,10.899600213874448,0.6027797707828875
24.0,20.43955236620225,0.37992591214248633,0.012250002810202304,10.899077835150358,0.602790179107534
25.0,20.443325272572913,0.38011017661589697,0.012243545513201096,10.898555510161959,0.6028006026981955
26.0,20.44709752377473,0.3802944574273999,0.012237090417311353,10.898033238984942,0.6028111027045834
27.0,20.45086911934749,0.3804787544978164,0.012230636864202253,10.897511021713214,0.6028215757116279
28.0,20.454640058831394,0.38066306774796227,0.012224185421307116,10.896988858433147,0.6028319925556477
29.0,20.45841034176697,0.38084739709864834,0.012217736145905395,10.896466749228086,0.6028423597389844
30.0,20.4621799676951,0.3810317424706755,0.012211289347737395,10.895944694179333,0.6028526610867636
31.0,20.46594893615695,0.3812161037848225,0.012204845030842272,10.895422693367987,0.602862914974167
32.0,20.469717246693946,0.3814004809618619,0.012198403197926802,10.894900746874985,0.6028731589192093
33.0,20.473484898847808,0.3815848739225353,0.012191963850629855,10.894378854781136,0.602883329854773
34.0,20.477251892160485,0.3817692825875807,0.012185526989729167,10.893857017167136,0.6028934138576545
35.0,20.481018226174186,0.381953706877709,0.012179092577760436,10.89333523411343,0.6029035025992818
36.0,20.48478390043135,0.38213814671360663,0.012172660273941042,10.89281350569957,0.6029135069949026
37.0,20.48854891447464,0.38232260201594387,0.012166229684621553,10.892291832008524,0.6029234926630932
38.0,20.49231326784696,0.3825070727053684,0.012159801131088952,10.891770213120067,0.6029335855288972
39.0,20.496076960091408,0.38269155870250654,0.012153374855446672,10.891248649115077,0.6029436493179735
40.0,20.499839990751326,0.38287605992796214,0.012146950685577147,10.89072714007495,0.6029537590355146
41.0,20.503602359370245,0.38306057630231655,0.012140528984986014,10.890205686079799,0.6029638256897943
42.0,20.507364065491945,0.3832451077461298,0.01213410975358906,10.889684287209706,0.6029737685976698
43.0,20.511125108660387,0.3834296541799414,0.012127692991154793,10.889162943544735,0.6029835965909273
44.0,20.514885488419775,0.38361421552426184,0.012121278697326916,10.888641655164928,0.6029933882184028
45.0,20.518645204314502,0.38379879169958503,0.012114866871643865,10.888120422150315,0.6030032004409579
46.0,20.522404255889168,0.3839833826263835,0.012108457513555408,10.887599244580908,0.6030130636991294
47.0,20.52616264268861,0.38416798822510634,0.012102050622436793,10.887078122536709,0.6030228669628772
48.0,20.529920364257855,0.38435260841617586,0.0120956461976006,10.886557056097711,0.6030326178953224
49.0,20.53367742014215,0.38453724311999854,0.012089244010025297,10.886036045344829,0.6030423175069481
50.0,20.537433809886934,0.38472189225695885,0.012082844282387619,10.885515090358037,0.6030519760626976
51.0,20.54118953303788,0.38490655574741206,0.012076447017371678,10.88499419121728,0.6030617466778893
52.0,20.544944589140854,0.3850912335116989,0.01207005218868988,10.884473348002501,0.6030716316447002
53.0,20.548698977741957,0.3852759254701361,0.012063659669042678,10.883952560793645,0.6030815382667394
54.0,20.552452698387462,0.38546063154302007,0.012057269607945382,10.883431829670634,0.6030914178902052
55.0,20.55620575062389,0.3856453516506238,0.012050882004827701,10.882911154713385,0.6031013256327534
56.0,20.55995813399796,0.38583008571320004,0.012044496859108095,10.882390536001816,0.6031114680974644
57.0,20.563709848056597,0.3860148336509818,0.012038114170196642,10.88186997361584,0.6031215595059036
58.0,20.567460892346936,0.38619959538417764,0.012031733937497516,10.881349467635363,0.6031318880446462
59.0,20.57121126641634,0.38638437083297816,0.01202535616041139,10.880829018140293,0.6031421811046881
60.0,20.574960969812377,0.3865691599175545,0.012018980838337532,10.880308625210535,0.6031525341644352
61.0,20.578710002082822,0.3867539625580522,0.012012607970675585,10.879788288925988,0.6031628012393978
62.0,20.582458362775668,0.3869387786746074,0.01200623755682729,10.879268009366552,0.6031729225591113
63.0,20.58620605143912,0.3871236081873173,0.01199986959619787,10.878747786612122,0.6031829445971025
64.0,20.589953067621614,0.3873084510162779,0.011993504088197274,10.878227620742592,0.603192900484722
65.0,20.59369941087177,0.38749330708155677,0.011987141032241312,10.877707511837857,0.6032029782225243
66.0,20.597445080738463,0.38767817630319906,0.01198078042775259,10.877187459977803,0.6032131142875262
67.0,20.60119007677074,0.38786305860123776,0.011974422274161503,10.87666746524232,0.6032233089152894
68.0,20.604934398517912,0.38804795389568564,0.011968066570906787,10.876147527711295,0.6032335690085053
69.0,20.60867804552947,0.38823286210652946,0.011961713317436415,10.875627647464608,0.6032438885518939
70.0,20.612421017355143,0.3884177831537374,0.011955362503927326,10.875107824582116,0.6032545086644345
71.0,20.616163313544867,0.38860271695726695,0.011949014023257805,10.874588059143349,0.6032650939493115
72.0,20.61990493364881,0.3887876634370511,0.011942667913248745,10.874068351228463,0.603276221569489
73.0,20.623645877217353,0.3889726225130082,0.011936324232759801,10.87354870091739,0.6032874222835937
74.0,20.62738614380111,0.3891575941050322,0.011929983002626267,10.873029108289987,0.6032984245062522
75.0,20.631125732950906,0.3893425781330053,0.01192364414478027,10.872509573426523,0.6033091083287688
76.0,20.634864644217785,0.3895275745167863,0.01191730772233147,10.871990096406915,0.603319585158414
77.0,20.638602877153012,0.38971258317622004,0.01191097375361106,10.871470677310985,0.6033300070230864
78.0,20.642340431308103,0.3898976040311284,0.011904642238261013,10.87095131621855,0.6033403024229606
79.0,20.646077306234766,0.3900826370013238,0.011898313175926434,10.87043201320943,0.6033502580130853
80.0,20.649813501484932,0.39026768200659784,0.011891986563918305,10.869912768363328,0.603361361325843
81.0,20.653549016610782,0.3904527389667218,0.01188566235855595,10.869393581758,0.603372415118437
82.0,20.657283851164703,0.39063780780145274,0.011879340603747351,10.868874453473266,0.6033830223501103
83.0,20.661018004699308,0.39082288843053065,0.011873021299203135,10.868355383588943,0.6033935153903232
84.0,20.664751476767446,0.39100798077367577,0.011866704444637253,10.867836372184847,0.6034039458146524
85.0,20.66848426692218,0.3911930847506026,0.01186039003976716,10.86731741934079,0.6034142319582826
86.0,20.672216374716818,0.3913782002809947,0.011854078084313794,10.866798525136586,0.6034243352996386
87.0,20.67594779970488,0.3915633272845292,0.011847768578001596,10.866279689652046,0.6034343045979563
88.0,20.67967854144012,0.39174846568086413,0.011841461520558389,10.865760912966978,0.6034441355740147
89.0,20.683408599476536,0.39193361538964394,0.011835156911715312,10.865242195161189,0.6034538556926204
90.0,20.687137973368337,0.39211877633049114,0.011828854741632037,10.864723536314509,0.6034633464873788
91.0,20.690866662669976,0.39230394842302196,0.011822555008957103,10.864204936506763,0.603472541763428
92.0,20.694594666936126,0.39248913158683035,0.01181625771347655,10.863686395817776,0.6034823792761476
93.0,20.698321985721712,0.39267432574149846,0.011809962854988882,10.863167914327368,0.6034928832482033
94.0,20.702048618581873,0.3928595308065912,0.011803670433305062,10.862649492115361,0.6035030790080573
95.0,20.70577456507199,0.3930447467016647,0.011797380448248365,10.862131129261563,0.6035130124028791
96.0,20.709499824747674,0.39322997334625015,0.011791092899654253,10.86161282584579,0.6035229555333218
97.0,20.713224397164772,0.3934152106598732,0.011784807787370205,10.861094581947842,0.6035329841335669
98.0,20.716948281879375,0.39360045856204545,0.011778525111255506,10.860576397647527,0.6035434499387748
99.0,20.720671478447805,0.3937857169722523,0.011772244869763613,10.860058273024649,0.6035541834634236
100.0,20.724393986426616,0.39397098580998585,0.011765967061002953,10.85954020815901,0.603564907217086
101.0,20.728115805372596,0.3941562649947093,0.011759691632567756,10.85902220313064,0.6035751228405366
102.0,20.7318369348428,0.3943415544458695,0.011753418631065606,10.85850425801935,0.603584799102748
103.0,20.73555737439448,0.3945268540829128,0.01174714806245732,10.857986372904927,0.6035944139051338
104.0,20.73927712358516,0.3947121638252658,0.011740879926803262,10.857468547867146,0.6036041233250701
105.0,20.7429961819726,0.3948974835923398,0.011734614224176902,10.85695078298578,0.6036141333044633
106.0,20.746714549114785,0.39508281330354195,0.011728350954664476,10.856433078340599,0.6036243989127114
107.0,20.75043222456995,0.3952681528782552,0.011722090118364736,10.855915434011361,0.6036349683737589
108.0,20.754149207896578,0.3954535022358557,0.011715831715388727,10.855397850077821,0.6036455509991018
109.0,20.757865498653377,0.39563886129571224,0.011709575745859397,10.85488032661973,0.6036562264073323
110.0,20.76158109639932,0.3958242299771693,0.01170332220991123,10.854362863716826,0.6036671393278754
111.0,20.765296000693606,0.39600960819957454,0.011697071107690036,10.853845461448845,0.6036781573421798
112.0,20.76901021109569,0.3961949958822501,0.011690822439352573,10.853328119895519,0.6036890439700762
113.0,20.77272372716527,0.3963803929445149,0.011684576205066157,10.852810839136566,0.6036997095958473
114.0,20.77643654846228,0.3965657993056723,0.011678332405008316,10.852293619251704,0.6037100609213012
115.0,20.780148674546908,0.3967512148850192,0.01167209103936644,10.85177646032064,0.6037201910454956
116.0,20.783860104979585,0.39693663960183634,0.011665852108337437,10.851259362423072,0.6037304515971444
117.0,20.787570839321,0.39712207337539684,0.011659615612127269,10.850742325638695,0.6037407530100009
118.0,20.791280877132067,0.3973075161249606,0.011653381550950656,10.850225350047195,0.6037508829136841
119.0,20.794990217973982,0.3974929677697771,0.011647149922071262,10.849708435728243,0.6037609206872544
120.0,20.798698861408155,0.3976784282290908,0.011640920725224699,10.849191582761504,0.603770722114169
121.0,20.802406806996267,0.3978638974221291,0.011634693960813722,10.848674791226633,0.6037801929715053
122.0,20.80611405430025,0.39804937526811,0.011628469629253086,10.848158061203277,0.6037896130940329
123.0,20.80982060288227,0.3982348616862493,0.01162224773096894,10.847641392771072,0.6037990878609549
124.0,20.813526452304764,0.3984203565957419,0.011616028266397778,10.847124786009648,0.6038097925687808
125.0,20.81723160213041,0.3986058599157838,0.011609811217666533,10.846608240995904,0.6038205210817285
126.0,20.820936051922136,0.39879137156555444,0.011603596591579045,10.84609175780791,0.6038313880910822
127.0,20.824639801243134,0.3989768914642265,0.011597384398705031,10.845575336525277,0.6038424631640689
128.0,20.82834284965682,0.39916241953096526,0.011591174639543058,10.845058977227609,0.60385347009867
129.0,20.832045196726913,0.3993479556849215,0.011584967314598574,10.844542679994497,0.603864535214965
130.0,20.835746842017336,0.39953349984524617,0.011578762424383146,10.844026444905527,0.6038756016873424
131.0,20.839447785092304,0.39971905193107604,0.011572559969413492,10.843510272040277,0.6038866957041775
132.0,20.843148025516264,0.399904611861543,0.011566359950210579,10.842994161478314,0.6038982100786743
133.0,20.846847562853945,0.4000901795557654,0.011560162367298555,10.842478113299197,0.603910002617765
134.0,20.85054639667031,0.4002757549328564,0.01155396722120379,10.84196212758248,0.6039216536322013
135.0,20.854244526530586,0.4004613379119258,0.01154777451245386,10.841446204407701,0.6039330794797884
136.0,20.857941952000274,0.40064692841206745,0.011541584238643467,10.840930343854408,0.6039443739188962
137.0,20.861638672645128,0.40083252635237826,0.011535396395653373,10.84041454600207,0.6039553964536318
138.0,20.865334688031133,0.40101813165193523,0.011529210950486247,10.839898810928576,0.6039661926073961
139.0,20.869029997724585,0.40120374422982313,0.011523027938158943,10.839383138713467,0.6039767507341139
140.0,20.872724601291992,0.4013893640051047,0.011516847359381304,10.838867529436275,0.6039871717736515
141.0,20.876418498300147,0.4015749908968498,0.011510669214865784,10.838351983176521,0.6039984918878193
142.0,20.880111688316113,0.4017606248241104,0.011504493505326488,10.837836500013717,0.6040095256537417
143.0,20.88380417090719,0.4019462657059378,0.011498320231167328,10.837321080027367,0.6040202420351347
144.0,20.887495945640975,0.4021319134613792,0.011492149390176119,10.836805723296992,0.6040307845839252
145.0,20.89118701208529,0.4023175680094703,0.011485980983090593,10.836290429902101,0.6040411410491869
146.0,20.894877369808263,0.4025032292692472,0.011479815010648129,10.835775199922196,0.6040513474898798
147.0,20.898567018378248,0.4026888971597355,0.011473651473584423,10.835260033436766,0.604061223588404
148.0,20.9022559573639,0.402874571599952,0.011467490372632295,10.834744930525288,0.6040712232194848
149.0,20.905944186334104,0.40306025250891925,0.011461331708520405,10.834229891267233,0.6040815803347586
150.0,20.90963170485805,0.403245939805649,0.01145517548115988,10.83371491574206,0.6040913404639695
151.0,20.913318512505164,0.40343163340914184,0.011449021690030616,10.83320000402922,0.6041010924778999
152.0,20.917004608845158,0.40361733323840215,0.011442870335850598,10.832685156208154,0.604111328030279
153.0,20.920689993448015,0.4038030392124294,0.011436721419330038,10.83217037235829,0.604121815510799
154.0,20.924374665883967,0.40398875125021294,0.011430574940477148,10.83165565255905,0.6041322316124507
155.0,20.928058625723533,0.4041744692707436,0.01142443088120833,10.831140996888905,0.604142433769371
156.0,20.9317418725375,0.40436019319300237,0.011418289235759837,10.830626405425784,0.6041525046549442
157.0,20.93542440589692,0.40454592293597463,0.0114121500226381,10.830111878249097,0.6041624601038983
158.0,20.939106225373113,0.4047316584186346,0.011406013225223229,10.829597415437311,0.6041723399261792
159.0,20.942787330537662,0.40491739955995554,0.011399878837402651,10.829083017068571,0.6041822776716965
160.0,20.946467720962445,0.40510314627890587,0.011393746850089552,10.828568683220784,0.6041921900899391
161.0,20.950147396219606,0.40528889849445165,0.011387617297410878,10.82805441397335,0.6042019600175447
162.0,20.953826355881535,0.405474656125564,0.011381490160974884,10.827540209404159,0.6042118466336678
163.0,20.957504599520934,0.4056604190911954,0.011375365451141798,10.827026069591874,0.6042217513930542
164.0,20.961182126710753,0.4058461873103057,0.011369243177969404,10.826511994615878,0.6042330934305368
165.0,20.964858937024214,0.4060319607018535,0.011363123323030714,10.825997984554894,0.6042444099644282
166.0,20.968535030034836,0.40621773918478965,0.01135700588932278,10.825484039487723,0.6042551812408052
167.0,20.972210405316403,0.4064035226780685,0.011350890894410612,10.824970159493736,0.6042656706103651
168.0,20.975885062442984,0.4065893111006364,0.011344778338986467,10.8244563446523,0.604276098835323
169.0,20.9795590009889,0.40677510437143954,0.011338668223721716,10.823942595042768,0.6042865338627424
170.0,20.983232220528777,0.4069609024094258,0.011332560549265952,10.823428910744488,0.6042969111312733
171.0,20.986904720637508,0.40714670513354356,0.011326455316245695,10.822915291836798,0.6043070618225738
172.0,20.99057650089027,0.40733251246273133,0.011320352525263552,10.822401738399032,0.604317001035973
173.0,20.994247560862522,0.4075183243159292,0.011314252176897275,10.821888250510508,0.6043268590409444
174.0,20.997917900129984,0.40770414061208293,0.011308154271698751,10.821374828250542,0.6043365915481539
175.0,21.001587518268682,0.4078899612701319,0.011302058810193142,10.82086147169844,0.6043469739189816
176.0,21.005256414854916,0.40807578620901247,0.011295965792878072,10.8203481809335,0.6043576085403886
177.0,21.008924589465252,0.4082616153476702,0.011289875220222763,10.819834956035011,0.6043680873893426
178.0,21.01259204167656,0.40844744860503995,0.011283787092667443,10.819321797082258,0.6043782958469567
179.0,21.016258771065978,0.4086332859000621,0.011277701410622423,10.818808704154513,0.604388440402001
180.0,21.019924777210935,0.40881912715167606,0.011271618174467656,10.818295677331044,0.6043988426349024
181.0,21.02359005968915,0.40900497227881966,0.011265537383807043,10.817782716691104,0.6044097605013811
182.0,21.027254618078604,0.40919082120043565,0.01125945903785064,10.817269822313932,0.6044209719701163
183.0,21.030918451957582,0.4093766738354621,0.011253383136901933,10.81675699427876,0.6044320738015215
184.0,21.034581560904652,0.4095625301028442,0.011247309681233362,10.816244232664811,0.6044434783983845
185.0,21.038243944498664,0.40974838992151863,0.011241238671085965,10.8157315375513,0.6044547939114481
186.0,21.04190560231876,0.4099342532104335,0.011235170106668852,10.815218909017439,0.6044662359592906
187.0,21.045566533944363,0.41012011988853336,0.01122910398815897,10.814706347142424,0.6044777811950571
188.0,21.049226738955188,0.41030598987476513,0.011223040315700716,10.814193852005449,0.6044899772213578
189.0,21.05288621693123,0.41049186308807334,0.011216979089405688,10.8136814236857,0.6045018817250518
190.0,21.056544967452787,0.41067773944740965,0.01121092030935246,10.813169062262356,0.6045133967048001
191.0,21.060202990100436,0.41086361887172523,0.011204863975586439,10.812656767814584,0.6045244995896808
192.0,21.063860284455046,0.41104950127997536,0.011198810041673316,10.812144540422437,0.6045352871995239
