k,PSNR,SSIM,mse,Log-Gradient,Angle
0.0,20.349461691501883,0.3755423329492484,0.0,10.911541824339754,0.6009873566987051
1.0,20.35263025551123,0.3756943778617094,0.010171318971147305,10.911101236824939,0.6025246577287714
2.0,20.35638859771288,0.37587665319386004,0.012244687978907529,10.910581649374318,0.602543669424206
3.0,20.360174374346876,0.3760604510308038,0.012370270463711992,10.910058383842467,0.6025566305241089
4.0,20.36396239857531,0.3762444214045552,0.012380509406441892,10.909534766470186,0.6025673221276258
5.0,20.367750680364743,0.37642845616569626,0.012378996078456174,10.909011069458659,0.6025807781447683
6.0,20.371538924985003,0.37661253920187776,0.012375279471751375,10.908487334961784,0.602590837119856
7.0,20.375327065544266,0.37679666681485235,0.012370901397329633,10.907963574613207,0.602602711730157
8.0,20.379115087015435,0.3769808380513344,0.012366337006800425,10.907439791493768,0.6026144775022438
9.0,20.382902983248577,0.37716505253215615,0.012361659363288388,10.906915987155692,0.6026265544898657
10.0,20.386690751952866,0.37734931008628597,0.012356938316350286,10.906392162256779,0.6026384111207542
11.0,20.390478391837014,0.37753361059997587,0.012352191407122275,10.905868317241856,0.6026499858457993
12.0,20.394265901976457,0.37771795397557345,0.012347431325973887,10.905344452401883,0.6026612982315706
13.0,20.39805328170166,0.3779023401405674,0.012342655554788518,10.904820568029155,0.6026723861730625
14.0,20.401840530421936,0.37808676902753957,0.012337872356152408,10.904296664323772,0.6026833448243977
15.0,20.40562764764342,0.3782712405772883,0.012333083068496948,10.903772741421452,0.6026942474025336
16.0,20.409414632922882,0.3784557547310345,0.012328291192610464,10.90324879942388,0.6027051358331513
17.0,20.413201485821403,0.3786403114303993,0.012323497781016799,10.90272483842779,0.6027160250334255
18.0,20.416988205903102,0.3788249106172777,0.012318700367116332,10.902200858525278,0.6027269129812844
19.0,20.42077479273422,0.37900955223374005,0.012313903149212343,10.901676859794813,0.6027377306675791
20.0,20.424561245882494,0.3791942362219681,0.01230910645411209,10.901152842306107,0.6027484970352702
21.0,20.42834756491669,0.37937896252418785,0.01230430682801182,10.900628806113048,0.6027591487199976
22.0,20.432133749406244,0.3795637310826699,0.012299506414685801,10.900104751278587,0.6027696968291089
23.0,20.43591979892106,0.3797485418396735,0.012294706704888792,10.899580677863597,0.6027801636886864
24.0,20.439705713031362,0.3799333947374402,0.012289907580286823,10.899056585929046,0.6027906051679724
25.0,20.443491491307576,0.3801182897181814,0.012285108546972434,10.8985324755377,0.6028010692076787
26.0,20.447277133320195,0.3803032267240692,0.012280310175464078,10.898008346740987,0.6028116078638878
27.0,20.451062638639748,0.38048820569722513,0.01227551180842617,10.897484199608593,0.602822119284587
28.0,20.454848006836734,0.3806732265797108,0.01227071401176008,10.896960034202746,0.6028325695656013
29.0,20.458633237481564,0.3808582893135391,0.012265916843141851,10.896435850582689,0.6028429795435749
30.0,20.462418330144573,0.38104339384065056,0.012261120612622274,10.895911648805662,0.6028533194382867
31.0,20.466203284395938,0.3812285401029249,0.012256325324623557,10.895387428928755,0.6028636183307511
32.0,20.46998809980569,0.38141372804217627,0.012251530982236494,10.894863191008943,0.6028739040562983
33.0,20.4737727759437,0.38159895760014817,0.012246737587484685,10.894338935103121,0.6028841123366541
34.0,20.477557312379666,0.38178422871851186,0.012241945141531175,10.893814661268124,0.602894242547417
35.0,20.481341708683086,0.38196954133887323,0.012237153608229058,10.893290369560585,0.6029043776507091
36.0,20.485125964423286,0.38215489540276065,0.012232362648175723,10.892766060036266,0.6029144264972771
37.0,20.488910079169365,0.3823402908516333,0.012227571869701071,10.892241732754437,0.6029244711926665
38.0,20.492694052490236,0.3825257276268747,0.012222781588782794,10.891717387771205,0.6029346196722131
39.0,20.496477883954583,0.38271120566980305,0.01221799205753424,10.891193025143808,0.6029447400464054
40.0,20.500261573130892,0.3828967249216479,0.012213203090965324,10.890668644930093,0.6029549120227652
41.0,20.50404511958742,0.3830822853235787,0.012208415058775013,10.890144247186658,0.6029650208614294
42.0,20.50782852289222,0.3832678868166859,0.01220362796126662,10.889619831970116,0.6029750061497356
43.0,20.51161178261311,0.3834535293419871,0.012198841798596025,10.88909539933711,0.6029848881115965
44.0,20.515394898317712,0.3836392128404223,0.012194056570794115,10.888570949344317,0.6029947299741618
45.0,20.5191778695734,0.3838249372528561,0.012189272277786184,10.888046482048441,0.603004625462445
46.0,20.522960695947337,0.3840107025200819,0.012184488919408676,10.88752199750623,0.6030145477323937
47.0,20.52674337700646,0.38419650858282034,0.012179706495423085,10.886997495774466,0.6030243972003839
48.0,20.53052591231749,0.38438235538171256,0.012174925005528022,10.886472976909973,0.6030342077003901
49.0,20.534308301446906,0.38456824285732444,0.01217014422354449,10.885948440970543,0.6030439749190236
50.0,20.538090543960976,0.3847541709501545,0.012165364368509003,10.885423888013081,0.60305368774891
51.0,20.541872639425733,0.3849401396006183,0.012160585445059465,10.884899318094522,0.6030635628102499
52.0,20.545654587407,0.3851261487490585,0.01215580742771218,10.884374731271842,0.6030735401818053
53.0,20.549436387470355,0.38531219833574726,0.012151030189552471,10.883850127602068,0.6030835140174415
54.0,20.55321803918116,0.38549828830087707,0.012146253880062234,10.883325507142255,0.6030934741906163
55.0,20.556999542104563,0.38568441858456765,0.012141478499054479,10.882800869949508,0.6031035196607227
56.0,20.560780895805454,0.3858705891268667,0.01213670404633067,10.882276216080982,0.6031137284096414
57.0,20.564562099848533,0.3860567998677448,0.01213193052168355,10.881751545593874,0.6031239101517668
58.0,20.568343153798253,0.386243050747094,0.012127157924899521,10.881226858545434,0.6031343422463731
59.0,20.572124057218836,0.3864293417047404,0.012122386255761133,10.880702154992958,0.6031447311279671
60.0,20.575904809674288,0.3866156726804279,0.012117615514049189,10.880177434993794,0.6031551635923972
61.0,20.579685410728402,0.3868020436138295,0.012112845699544454,10.87965269860533,0.6031654785161179
62.0,20.583465859944717,0.3869884544445393,0.012108076812029486,10.879127945885017,0.6031756696373565
63.0,20.587246156886565,0.3871749051120886,0.012103308851289803,10.878603176890342,0.6031857320033013
64.0,20.591026301117044,0.3873613955559228,0.012098541817115439,10.87807839167885,0.6031958230609394
65.0,20.59480629219903,0.38754792571541824,0.012093775709301783,10.877553590308134,0.6032059759890825
66.0,20.598586129695178,0.38773449552987455,0.01208901052765073,10.877028772835835,0.6032162482190274
67.0,20.602365813167918,0.3879211049385148,0.012084246271971468,10.876503939319646,0.6032265562788396
68.0,20.606145342179445,0.3881077538804976,0.012079482942081268,10.875979089817307,0.6032369335298591
69.0,20.609924716291744,0.3882944422949011,0.012074720537806104,10.87545422438661,0.6032473840482165
70.0,20.61370393506656,0.38848117012072764,0.01206995905898127,10.874929343085402,0.6032582042455228
71.0,20.617482998065434,0.3886679372969104,0.012065198387909974,10.874404445971214,0.6032689791517848
72.0,20.621261904849657,0.38885474376230533,0.012060438557437577,10.873879533102254,0.6032803507624952
73.0,20.625040654980328,0.3890415894556935,0.01205567963515794,10.873354604536573,0.6032916150425419
74.0,20.628819248018306,0.3892284743157887,0.01205092164093703,10.872829660332197,0.6033026173714952
75.0,20.632597683524235,0.3894153982812263,0.012046164521931677,10.872304700547486,0.6033133441599231
76.0,20.636375961058526,0.3896023612905668,0.012041408293278055,10.871779725240767,0.6033237586933876
77.0,20.640154080181382,0.3897893632822968,0.012036652997174782,10.871254734470188,0.6033344202105556
78.0,20.64393204045278,0.3899764041948374,0.012031898633636568,10.87072972829395,0.6033446139119714
79.0,20.647709841432462,0.3901634839665289,0.012027145202680601,10.870204706770311,0.6033549849946319
80.0,20.65148748267997,0.39035060253563963,0.012022392698736575,10.869679669957312,0.6033664577689086
81.0,20.65526496375461,0.3905377598403648,0.012017641085741616,10.8691546179114,0.6033774175524839
82.0,20.659042284215463,0.3907249558188289,0.012012890403986322,10.868629550690994,0.6033880038204621
83.0,20.6628194436214,0.39091219040907954,0.012008140653551179,10.86810446835456,0.6033986508020904
84.0,20.66659644153107,0.39109946354909414,0.012003391834519503,10.867579370960616,0.6034091403928812
85.0,20.67037327750289,0.3912867751767741,0.011998643946977562,10.867054258567741,0.603419444272323
86.0,20.67414995109508,0.3914741252299562,0.011993896991014752,10.866529131234554,0.6034296080597014
87.0,20.677926461865614,0.39166151364639284,0.01198915096672331,10.866003989019735,0.6034396082411827
88.0,20.681702809372275,0.39184894036376977,0.011984405874198436,10.865478831982012,0.603449512908618
89.0,20.685478993172598,0.39203640531970013,0.011979661710264742,10.864953660180175,0.6034592441572371
90.0,20.689255012823935,0.3922239084517271,0.011974918467511145,10.864428473673083,0.6034686934154475
91.0,20.69303086788338,0.3924114496973125,0.011970176146078083,10.86390327251965,0.6034780242152662
92.0,20.69680655790784,0.3925990289938596,0.011965434746118178,10.863378056778835,0.6034887603694493
93.0,20.700582082453998,0.3927866462786793,0.011960694267796227,10.862852826509654,0.6034992251501831
94.0,20.704357441078315,0.39297430148903206,0.01195595471128908,10.862327581771169,0.6035093576711865
95.0,20.708132633337023,0.39316199456209455,0.011951216076785539,10.861802322622498,0.6035194472513159
96.0,20.71190765878617,0.39334972543497165,0.011946478364486115,10.861277049122807,0.6035295408832666
97.0,20.715682516981563,0.3935374940446945,0.01194174157460298,10.860751761331315,0.6035399504664092
98.0,20.7194572074788,0.39372530032822944,0.011937005707359814,10.860226459307292,0.6035508101398995
99.0,20.72323172983326,0.39391314422246765,0.011932270760202883,10.859701143110069,0.6035617468728289
100.0,20.727006083600116,0.39410102566422517,0.01192753673298559,10.85917581279903,0.6035722638132426
101.0,20.730780268334314,0.39428894459024993,0.011922803569028325,10.858650468433856,0.6035822069382513
102.0,20.734554283590608,0.3944769009372169,0.011918071325139184,10.858125110074024,0.6035919403774636
103.0,20.738328128923513,0.39466489464172677,0.011913340002439519,10.857599737779065,0.6036017530294978
104.0,20.74210180388734,0.39485292564031677,0.01190860960135366,10.857074351608553,0.6036118796587885
105.0,20.745875308036204,0.39504099386944386,0.011903880122318711,10.856548951622118,0.6036221809709644
106.0,20.749648640923972,0.3952290992654986,0.011899151565784277,10.856023537879436,0.6036328937416535
107.0,20.753421802104334,0.3954172417648034,0.01189442393221223,10.855498110440234,0.6036436461400955
108.0,20.757194791130743,0.39560542130359405,0.011889697222076303,10.854972669364289,0.6036544399526155
109.0,20.760967607556452,0.3957936378180605,0.011884971435861908,10.85444721471143,0.6036655105251136
110.0,20.764740250934498,0.3959818912442965,0.011880246574065707,10.85392174654153,0.6036767033439385
111.0,20.768512720817704,0.39617018151834205,0.01187552263719546,10.853396264914519,0.6036877851656205
112.0,20.772285016758683,0.39635850857615645,0.011870799625769448,10.852870769890371,0.6036986552962759
113.0,20.776057138309845,0.3965468723536354,0.011866077540316359,10.852345261529113,0.603709205408843
114.0,20.779829085023383,0.39673527278659715,0.011861356381374751,10.851819739890818,0.6037195218167567
115.0,20.783600856451272,0.3969237098107943,0.011856636149492799,10.851294205035611,0.6037299390727927
116.0,20.7873724521453,0.3971121833619075,0.011851916845227921,10.850768657023666,0.6037404354619039
117.0,20.791143871657013,0.3973006933755487,0.01184719846914635,10.850243095915207,0.6037507761897981
118.0,20.79491511453778,0.39748923978725176,0.011842481019620304,10.849717521770502,0.6037610725232184
119.0,20.798686180338738,0.39767782253249306,0.011837764495877015,10.849191934649868,0.6037712276917498
120.0,20.802457068610835,0.3978664415466644,0.011833048898671714,10.848666334613668,0.6037811259003626
121.0,20.806227778904788,0.39805509676510087,0.01182833422877216,10.848140721722316,0.6037908047370978
122.0,20.809998310771128,0.3982437881230581,0.011823620486958047,10.847615096036272,0.6038003505780968
123.0,20.813768663760168,0.3984325155557265,0.011818907674019821,10.847089457616047,0.6038104682972464
124.0,20.817538837422006,0.39862127899822514,0.011814195788563507,10.846563806521846,0.6038215048081187
125.0,20.821308831306556,0.39881007838560184,0.011809484808011276,10.846038142810325,0.6038326950010057
126.0,20.825078644963494,0.3989989136528395,0.011804774756864856,10.845512466542143,0.603844012924733
127.0,20.828848277942306,0.39918778473484445,0.011800065635977259,10.844986777778017,0.6038552484664215
128.0,20.83261772979227,0.39937669156646144,0.011795357446208724,10.844461076578703,0.6038665633294852
129.0,20.836387000062455,0.3995656340824585,0.011790650188426195,10.843935363005018,0.6038778656729017
130.0,20.840156088301732,0.39975461221753616,0.011785943863502239,10.843409637117821,0.6038891727719862
131.0,20.843924994058757,0.3999436259063259,0.011781238472314244,10.842883898978023,0.6039010832173026
132.0,20.84769371688199,0.4001326750833993,0.011776534015743325,10.842358148646582,0.6039130929285988
133.0,20.851462256319685,0.4003217596832435,0.011771830494673367,10.84183238618451,0.603924903725728
134.0,20.85523061191989,0.40051087964028453,0.011767127909989992,10.841306611652863,0.6039365290714833
135.0,20.858998783230454,0.40070003488887657,0.011762426258421645,10.840780825112775,0.6039479795926184
136.0,20.862766769799016,0.4008892253633129,0.011757725539152292,10.84025502662543,0.6039591399171931
137.0,20.86653457117301,0.40107845099780653,0.011753025731012319,10.839729216250978,0.6039700839285713
138.0,20.870302186899682,0.4012677117265136,0.011748326842614303,10.83920339405004,0.6039807568935194
139.0,20.874069616526057,0.4014570074835069,0.011743628888477794,10.838677560083955,0.6039917603898726
140.0,20.877836859598972,0.401646338202805,0.01173893186968015,10.838151714414115,0.6040032156969201
141.0,20.881603915665053,0.40183570381835226,0.011734235787301083,10.83762585710196,0.6040143334705411
142.0,20.885370784270727,0.40202510426402477,0.011729540641453444,10.837099988208989,0.6040251809621363
143.0,20.889137464962225,0.4022145394736303,0.011724846430894713,10.836574107796768,0.6040358479387178
144.0,20.89290395728557,0.4024040093809065,0.011720153156730887,10.836048215926915,0.6040463792350652
145.0,20.896670260786593,0.40259351391952686,0.011715460820068437,10.835522312661096,0.6040566482334085
146.0,20.900436375010912,0.40278305302309647,0.011710769422012952,10.834996398061024,0.6040660442949656
147.0,20.90420229950397,0.4029726266251495,0.011706078963667923,10.834470472188466,0.6040774092056161
148.0,20.90796803381098,0.40316223465915474,0.011701389446133451,10.833944535105232,0.6040873804042284
149.0,20.91173357747698,0.403351877058512,0.011696700869417601,10.833418586873186,0.6040973277032579
150.0,20.915498930046805,0.4035415537565572,0.011692013233617526,10.832892627554246,0.6041075590893213
151.0,20.919264091065077,0.4037312646865512,0.01168732653982446,10.832366657210375,0.6041183173498111
152.0,20.923029060076242,0.40392100978169493,0.011682640789122718,10.831840675903587,0.6041290419999026
153.0,20.926793836624533,0.40411078897511965,0.011677955977552813,10.831314683695956,0.6041395441856175
154.0,20.930558420253988,0.404300602199884,0.01167327209762905,10.830788680649144,0.6041498747820487
155.0,20.93432281050845,0.40449044938899203,0.011668589132506997,10.830262666823314,0.6041601029859047
156.0,20.938087006931568,0.4046803304753667,0.011663907106463959,10.829736642280704,0.6041702046057148
157.0,20.941851009066788,0.40487024539187527,0.011659226006447289,10.82921060708281,0.60418037914528
158.0,20.94561481645735,0.4050601940713046,0.011654545824460627,10.828684561290691,0.604190536239536
159.0,20.949378428646316,0.405250176446394,0.01164986655215387,10.82815850496527,0.6042005518384687
160.0,20.953141845176546,0.4054401924497986,0.011645188218411885,10.827632438168811,0.6042106320764012
161.0,20.956905065590693,0.4056302420141173,0.011640510812666031,10.827106360962537,0.6042206910651188
162.0,20.960668089431227,0.40582032507187454,0.011635834339781081,10.826580273408048,0.6042322774943844
163.0,20.964430916240417,0.4060104415555372,0.011631158812866702,10.826054175567979,0.6042438639578297
164.0,20.968193545560343,0.40620059139749837,0.01162648421167131,10.825528067504258,0.6042549356102727
165.0,20.97195597693288,0.40639077453009076,0.011621810544187532,10.825001949279125,0.6042656794822118
166.0,20.97571820989973,0.4065809908855759,0.0116171378259174,10.824475820955383,0.604276365506055
167.0,20.97948024400238,0.4067712403961508,0.01161246605793544,10.823949682595886,0.604287058318565
168.0,20.983242078782137,0.40696152299395144,0.011607795241295524,10.823423534263545,0.604297684889436
169.0,20.987003713780112,0.40715183861103904,0.011603125377029785,10.82289737602132,0.6043080773456605
170.0,20.990765148537225,0.40734218717941695,0.01159845646614727,10.822371207932227,0.6043182536237898
171.0,20.994526382594202,0.4075325686310158,0.01159378850963328,10.82184503005933,0.6043283626261893
172.0,20.99828741549159,0.40772298289771025,0.011589121508448002,10.821318842465757,0.6043382855305961
173.0,21.00204824676972,0.40791342991129875,0.011584455463525663,10.82079264521468,0.604349125657745
174.0,21.005808875968764,0.40810390960352355,0.011579790375773587,10.820266438369332,0.6043600334170999
175.0,21.009569302628677,0.4082944219060529,0.011575126246071332,10.819740221992996,0.6043707150915912
176.0,21.013329526289233,0.40848496675050033,0.011570463075269767,10.819213996149008,0.6043811494985639
177.0,21.01708954649002,0.40867554406840517,0.011565800864190352,10.818687760900762,0.6043916289321377
178.0,21.02084936277044,0.40886615379124364,0.011561139613624299,10.818161516311706,0.6044023914017532
179.0,21.024608974669693,0.4090567958504317,0.0115564793237883,10.81763526244534,0.6044137813425977
180.0,21.028368381726807,0.40924747017731433,0.011551819994061786,10.817108999365205,0.6044252725620937
181.0,21.032127583480595,0.4094381767031769,0.011547161625159839,10.816582727134904,0.6044367945721891
182.0,21.035886579469718,0.4096289153592358,0.011542504217766468,10.81605644581809,0.6044484888495751
183.0,21.039645369232616,0.40981968607664987,0.011537847772534079,10.815530155478472,0.604460077387798
184.0,21.04340395230757,0.4100104887865035,0.011533192290082997,10.815003856179818,0.604471985633036
185.0,21.047162328232652,0.41020132341982657,0.01152853777100091,10.814477547985945,0.6044841426258053
186.0,21.050920496545764,0.41039218990757903,0.011523884215842667,10.81395123096073,0.6044965222507471
187.0,21.054678456784607,0.4105830881806556,0.011519231625129729,10.813424905168109,0.6045085333223829
188.0,21.0584362084867,0.41077401816989284,0.011514579999350032,10.812898570672065,0.6045201028996832
189.0,21.062193751189383,0.4109649798060575,0.01150992933895762,10.812372227536642,0.6045312917108712
190.0,21.06595108442981,0.41115597301985507,0.011505279644372462,10.811845875825938,0.60454226501273
191.0,21.06970820774494,0.41134699774192907,0.011500630856832906,10.811319515605321,0.6045532016704104
192.0,21.073465120671564,0.41153805390285775,0.01149598296974302,10.810793146938215,0.6045643714114012
