k,PSNR,SSIM,mse,Log-Gradient,Angle
0.0,20.349461691501883,0.3755423329492484,0.0,10.911541824339754,0.6009873566987051
1.0,20.352629646398903,0.375694348629885,0.010169363925791123,10.91110132152671,0.602524655613561
2.0,20.356386656946178,0.3758765596672262,0.012240405824439868,10.910581918692996,0.6025436640437656
3.0,20.360170374034915,0.3760602578304606,0.012363621050145443,10.910058938432977,0.6025566171666337
4.0,20.36395561036162,0.3762440930975719,0.01237148607451122,10.909535707081043,0.6025673008946347
5.0,20.367740375805017,0.3764279572856924,0.012367599188209573,10.909012496879926,0.6025807443752585
6.0,20.371524375602554,0.3766118342520799,0.012361510717211035,10.908489350017026,0.6025907927806754
7.0,20.375307542843395,0.3767957202688638,0.01235476283732979,10.907966278157105,0.6026026553633562
8.0,20.37908986248476,0.37697961435337496,0.012347830845697039,10.90744328441142,0.6026144065510535
9.0,20.382871328362665,0.37716351609720383,0.012340787834481755,10.90692037036223,0.6026264652756227
10.0,20.386651938173273,0.37734742530016563,0.012333703688360646,10.906397536697149,0.6026383007437246
11.0,20.39043169061301,0.37753134181944253,0.012326595958327718,10.90587478389067,0.6026498525953227
12.0,20.394210584745807,0.37771526552840345,0.012319477345682445,10.905352112263273,0.6026611407758742
13.0,20.397988619891247,0.37789919632562907,0.012312345329651316,10.904829522136668,0.6026722023617394
14.0,20.40176579544842,0.378083134114869,0.01230520817985901,10.904307013740222,0.6026831350017424
15.0,20.405542110913906,0.3782670788081668,0.01229806723349614,10.903784587238857,0.6026940048255768
16.0,20.409317565835533,0.3784510303180543,0.012290925996265188,10.90326224276335,0.6027048626817464
17.0,20.41309215976604,0.3786349885575533,0.012283785518408159,10.902739980439469,0.6027157141582441
18.0,20.416865892261878,0.37881895344002064,0.012276643330967181,10.902217800388241,0.6027265633147071
19.0,20.42063876288219,0.3790029248790721,0.012269503637661244,10.901695702716996,0.6027373442104323
20.0,20.424410771188267,0.3791869027884938,0.012262366764025624,10.901173687524217,0.6027480698707709
21.0,20.428181916743053,0.3793708870822215,0.012255229247020548,10.900651754892502,0.6027586827576189
22.0,20.431952199110768,0.3795548776742737,0.01224809324001327,10.900129904913426,0.60276918945318
23.0,20.43572161785676,0.3797388744787556,0.012240960232018353,10.899608137676411,0.6027796114778695
24.0,20.439490172547288,0.3799228774098249,0.01223383010140345,10.89908645327091,0.6027900062293114
25.0,20.44325786274944,0.3801068863816841,0.012226702357804271,10.898564851788075,0.6028004143538946
26.0,20.447024688031018,0.3802909013085678,0.01221957756813028,10.89804333330766,0.6028108977416835
27.0,20.450790647960467,0.3804749221047395,0.01221245507344913,10.89752189792762,0.602821355698848
28.0,20.45455574210683,0.3806589486844844,0.012205335441619789,10.897000545738322,0.6028317584577713
29.0,20.45831997003971,0.3808429809620956,0.012198218729563668,10.896479276827101,0.6028421082408618
30.0,20.46208333132922,0.3810270188518914,0.012191105246698013,10.895958091279205,0.6028523943732568
31.0,20.465845825545976,0.3812110622681962,0.012183994996709226,10.895436989179663,0.6028626308424166
32.0,20.469607452261055,0.38139511112534114,0.012176887981950985,10.89491597061331,0.6028728575044433
33.0,20.473368211046026,0.38157916533766795,0.012169784203708827,10.894395035664825,0.60288301274098
34.0,20.47712810147287,0.38176322481952035,0.012162683662406982,10.893874184418749,0.6028930777687959
35.0,20.480887123114048,0.38194728948525664,0.012155586319848297,10.893353416959338,0.6029031474776142
36.0,20.484645275542444,0.3821313592492293,0.012148491834492285,10.892832733369943,0.6029131357415678
37.0,20.488402558331348,0.382315434025804,0.012141399811686574,10.89231213373729,0.6029230994543918
38.0,20.492158971054494,0.3824995137293458,0.01213431057468213,10.89179161814488,0.6029331666676238
39.0,20.49591451328603,0.38268359827422116,0.012127224361315315,10.891271186677308,0.6029432069493482
40.0,20.499669184600524,0.38286768757481093,0.012120141004505232,10.890750839419642,0.6029532910185279
41.0,20.50342298457295,0.38305178154548347,0.012113060865042763,10.890230576455638,0.6029633407471447
42.0,20.507175912778695,0.3832358801006242,0.01210598394248935,10.889710397869006,0.6029732662196851
43.0,20.510927968793574,0.38341998315461706,0.01209891023625924,10.8891903037434,0.602983073492814
44.0,20.514679152193796,0.3836040906218478,0.012091839745641977,10.888670294162429,0.6029928434951592
45.0,20.51842946255598,0.3837882024167086,0.012084772469821974,10.888150369209662,0.6030026238352447
46.0,20.522178899457174,0.38397231845359037,0.012077708407895058,10.887630528968618,0.6030124620058587
47.0,20.525927462474808,0.3841564386468939,0.012070647558882732,10.887110773522787,0.6030222463104872
48.0,20.52967515118674,0.38434056291101953,0.012063589921743919,10.886591102955613,0.6030319728014082
49.0,20.53342196517122,0.3845246911603705,0.012056535266102826,10.886071517351443,0.6030416458922225
50.0,20.537167904006935,0.38470882330935857,0.012049483815922697,10.885552016793643,0.6030512834774501
51.0,20.540912967272938,0.38489295927239003,0.012042435572895334,10.885032601365532,0.6030610117862824
52.0,20.54465715454873,0.3850770989638939,0.01203539051020879,10.884513271150398,0.6030708608372415
53.0,20.548400465414204,0.3852612422982791,0.01202834850021133,10.883994026231495,0.6030807371496402
54.0,20.552142899449656,0.385445389189978,0.012021309692235197,10.883474866692032,0.6030905843998337
55.0,20.555884456235813,0.3856295395534204,0.012014274085357591,10.882955792615189,0.6031004357959534
56.0,20.559625135353784,0.38581369330304155,0.012007241678644656,10.882436804084112,0.6031105543902192
57.0,20.563364936385106,0.385997850353281,0.012000212471154337,10.881917901181913,0.6031206164283162
58.0,20.56710385891172,0.3861820106185818,0.011993186461938789,10.881399083991678,0.60313089285408
59.0,20.57084190251599,0.3863661740133984,0.011986163650046795,10.880880352596456,0.6031411518663533
60.0,20.574579066780665,0.3865503404521852,0.011979144034525963,10.880361707079272,0.6031514689890586
61.0,20.57831535128892,0.38673450984940283,0.011972127614424387,10.879843147523113,0.603161713254145
62.0,20.582050755624355,0.3869186821195228,0.011965114388792478,10.87932467401094,0.6031718075621478
63.0,20.585785279370956,0.3871028571770107,0.011958104356684254,10.878806286625684,0.6031818116895215
64.0,20.589518922113143,0.3872870349363547,0.011951097517158598,10.87828798545024,0.6031917170058109
65.0,20.593251683435735,0.38747121531203527,0.011944093869280435,10.87776977056748,0.6032017630134275
66.0,20.596983562923977,0.3876553982185486,0.011937093412121694,10.877251642060239,0.603211841863173
67.0,20.60071456016352,0.3878395835703928,0.011930096144762153,10.876733600011326,0.6032219941902036
68.0,20.604444674740435,0.38802377128207516,0.01192310206629023,10.876215644503516,0.6032322060559406
69.0,20.608173906241202,0.3882079612681064,0.011916111175803556,10.875697775619557,0.6032424807969393
70.0,20.61190225425272,0.38839215344300787,0.011909123456718266,10.875179993442117,0.6032530075950999
71.0,20.615629718362314,0.3885763477213109,0.011902138813897012,10.874662298053554,0.6032635766828082
72.0,20.61935629815771,0.38876054401755117,0.011895157279137326,10.874144689536795,0.6032745490328147
73.0,20.62308199322707,0.3889447422462693,0.011888178910155475,10.873627167974526,0.6032857157359318
74.0,20.62680680315896,0.38912894232201944,0.011881203727986145,10.873109733449322,0.6032967147659681
75.0,20.63053072754238,0.38931314415936297,0.011874231644087158,10.872592386044197,0.6033074040598742
76.0,20.63425376596674,0.3894973476728693,0.011867262740920955,10.87207512584168,0.6033178743832557
77.0,20.637975918021873,0.38968155277711425,0.011860297026895908,10.871557952924228,0.6033281829536908
78.0,20.641697183298028,0.38986575938668255,0.011853334501306068,10.871040867374262,0.6033385570143698
79.0,20.645417561385884,0.3900499674161724,0.011846375163448662,10.870523869274177,0.6033484814413185
80.0,20.649137051876544,0.3902341767801895,0.011839419011638883,10.87000695870629,0.6033592683301056
81.0,20.652855654361503,0.3904183873933469,0.011832465998843055,10.869490135750816,0.6033703706567927
82.0,20.656573368432728,0.3906025991702681,0.011825516170273503,10.868973400490063,0.6033810057740847
83.0,20.660290193682567,0.39078681202558535,0.011818569525293952,10.868456753006312,0.6033914266240995
84.0,20.664006129703804,0.3909710258739469,0.011811626063271689,10.867940193381811,0.603401839490825
85.0,20.66772117608966,0.3911552406300003,0.011804685783577702,10.867423721698778,0.6034121140861836
86.0,20.671435332433767,0.391339456208415,0.011797748685586619,10.866907338039402,0.6034221932011649
87.0,20.675148598330185,0.3915236725238635,0.011790814768676864,10.86639104248584,0.6034321504710768
88.0,20.678860973373414,0.3917078894910313,0.011783884032230343,10.86587483512022,0.6034419457245697
89.0,20.68257245715836,0.3918921070246213,0.01177695647563255,10.865358716024636,0.6034516558005086
90.0,20.686283049280384,0.3920763250393333,0.011770032090516016,10.864842685281172,0.6034611590063127
91.0,20.68999274933524,0.39226054344988764,0.011763110873400179,10.864326742971887,0.6034703899696051
92.0,20.693701556919134,0.3924447621710209,0.011756192823725442,10.863810889178808,0.6034797798733398
93.0,20.69740947162871,0.3926289811174714,0.011749277940944868,10.863295123983931,0.6034902873429914
94.0,20.701116493061026,0.3928132002039956,0.011742366224524101,10.862779447469213,0.6035005175270699
95.0,20.704822620813562,0.39299741934536064,0.011735457673941256,10.862263859716588,0.6035104348053799
96.0,20.70852785448426,0.39318163845634335,0.011728552288686831,10.861748360807951,0.6035203353356026
97.0,20.712232193671454,0.39336585745173885,0.011721650068263392,10.861232950825164,0.6035302450495611
98.0,20.715935637973963,0.39355007624634886,0.011714751012185574,10.860717629850058,0.6035404787712187
99.0,20.719638186990984,0.3937342947549933,0.01170785511912266,10.860202397964434,0.6035511273062469
100.0,20.72333984032218,0.39391851289250185,0.011700962386274215,10.859687255250071,0.6035618480306798
101.0,20.727040597567637,0.39410273057371686,0.011694072762789717,10.859172201788923,0.6035721764831735
102.0,20.730740458327887,0.39428694771350165,0.011687186290902865,10.858657237662724,0.6035819280491509
103.0,20.734439422203895,0.39447116422672296,0.011680302978361317,10.858142362953142,0.6035914572247946
104.0,20.73813748879704,0.39465538002826567,0.011673422824880845,10.857627577741809,0.6036010678357527
105.0,20.74183465770918,0.3948395950330294,0.011666545830190405,10.85711288211032,0.6036109594300303
106.0,20.74553092854257,0.3950238091559279,0.011659671994031923,10.856598276140238,0.6036210123724746
107.0,20.74922630089993,0.3952080223118921,0.011652801316159908,10.856083759913087,0.6036314707172816
108.0,20.752920774384393,0.3953922344158634,0.011645933796341204,10.855569333510362,0.6036419963580486
109.0,20.756614348599562,0.395576445382799,0.011639069434354728,10.855054997013514,0.6036525359238222
110.0,20.760307023149448,0.39576065512766956,0.011632208229991071,10.854540750503965,0.6036633200338306
111.0,20.763998797638518,0.3959448635654656,0.011625350183052262,10.854026594063097,0.6036742354184345
112.0,20.767689671671683,0.3961290706111913,0.01161849529335127,10.85351252777226,0.6036851028642584
113.0,20.771379644854285,0.39631327617986534,0.011611643560711826,10.852998551712762,0.6036958041294012
114.0,20.775068716792116,0.39649748018652015,0.011604794984967989,10.852484665965882,0.6037062022059815
115.0,20.778756887091397,0.3966816825462118,0.011597949565963704,10.851970870612854,0.6037163339790282
116.0,20.78244415535881,0.39686588317400334,0.011591107303552561,10.851457165734885,0.6037264029390712
117.0,20.786130521201468,0.3970500819849803,0.011584268197597287,10.850943551413136,0.6037366854355705
118.0,20.789815984226927,0.3972342788942445,0.011577432247969527,10.850430027728736,0.6037467705559517
119.0,20.793500544043194,0.39741847381690865,0.011570599452744804,10.849916594762774,0.6037567426810039
120.0,20.797184200258716,0.39760266666811295,0.011563769810137143,10.849403252596295,0.6037665138271932
121.0,20.800866952482394,0.39778685736300173,0.01155694332020395,10.84889000131031,0.6037759576940391
122.0,20.804548800323555,0.39797104581675047,0.011550119983014931,10.848376840985788,0.6037852874893702
123.0,20.808229743391998,0.3981552319445425,0.011543299798651225,10.847863771703663,0.6037946529985468
124.0,20.81190978129795,0.39833941566158265,0.011536482767204396,10.84735079354483,0.6038051017771789
125.0,20.8155889136521,0.3985235968830932,0.011529668875490513,10.84683790658821,0.6038157130715337
126.0,20.819267140065556,0.39870777552431286,0.011522858119651598,10.846325110912305,0.6038263490418053
127.0,20.822944460149913,0.3988919515004985,0.011516050515199565,10.84581240659791,0.6038373020527298
128.0,20.82662087351718,0.39907612472693166,0.011509246062288963,10.84529979372577,0.6038482407784926
129.0,20.83029637977983,0.39926029511890765,0.011502444761081386,10.844787272376598,0.6038591725060586
130.0,20.833970978550788,0.39944446259173666,0.011495646611744603,10.844274842631068,0.6038701637560503
131.0,20.83764466944343,0.39962862706075714,0.0114888516144518,10.843762504569813,0.6038811668502678
132.0,20.841317452071575,0.3998127884413221,0.011482059769380437,10.843250258273432,0.6038921948277186
133.0,20.84498932604951,0.39999694664879915,0.011475271076711431,10.842738103822484,0.6039039189109285
134.0,20.848660290991955,0.4001811015985847,0.011468485536628058,10.842226041297486,0.6039155768264654
135.0,20.85233034651409,0.40036525320609134,0.01146170314931495,10.841714070778924,0.603927008231102
136.0,20.855999492231557,0.4005494013867485,0.01145492391492106,10.841202192347234,0.6039382884316234
137.0,20.85966772776044,0.40073354605601064,0.011448147827887658,10.840690406082853,0.6039493843486852
138.0,20.863335052717286,0.4009176871293496,0.01144137485784453,10.84017871206476,0.6039601969545214
139.0,20.86700146671909,0.4011018245222573,0.01143460502787304,10.839667110373002,0.6039708147448407
140.0,20.8706669693833,0.40128595815025275,0.01142783834513764,10.839155601087894,0.6039811779182346
141.0,20.87433156032784,0.4014700879288653,0.011421074810004409,10.838644184289722,0.6039919261335681
142.0,20.877995239171053,0.4016542137736554,0.01141431442284129,10.838132860058726,0.6040030586636207
143.0,20.88165800553177,0.4018383356001997,0.011407557184016627,10.83762162847511,0.6040138640433025
144.0,20.885319859029266,0.40202245332409786,0.011400803091965056,10.837110489619057,0.6040244031883418
145.0,20.88898079928329,0.4022065668609695,0.011394052145786615,10.836599443570718,0.6040347726323074
146.0,20.892640825914018,0.4023906761264559,0.011387304345871716,10.8360884904102,0.604045011594712
147.0,20.896299938542114,0.40257478103622596,0.0113805596926094,10.835577630217577,0.604055011012686
148.0,20.89995813678869,0.40275888150596656,0.011373818186385908,10.835066863072878,0.6040645373303416
149.0,20.903615420275333,0.4029429774513877,0.011367079827583618,10.834556189056096,0.6040751789026345
150.0,20.907271788624055,0.4031270687882201,0.011360344616579575,10.834045608247177,0.6040849005201234
151.0,20.91092724145737,0.4033111554322186,0.011353612551847204,10.833535120726037,0.6040945734503836
152.0,20.914581778398222,0.4034952372991658,0.011346883633615698,10.833024726572543,0.6041042936006076
153.0,20.91823539907004,0.4036793143048563,0.011340157862249348,10.832514425866531,0.6041145847113788
154.0,20.92188810309669,0.40386338636512237,0.011333435238103774,10.83200421868779,0.6041249786436211
155.0,20.925539890102534,0.40404745339581205,0.011326715756042478,10.831494105115924,0.6041352357569264
156.0,20.929190759712366,0.40423151531279067,0.01131999938625387,10.830984085228383,0.6041452928257177
157.0,20.932840711551464,0.4044155720319618,0.01131328615666704,10.83047415910486,0.6041552492542643
158.0,20.936489745245552,0.4045996234692428,0.011306576064598044,10.829964326824848,0.6041650562788053
159.0,20.94013786042082,0.4047836695405804,0.011299869078548052,10.82945458846611,0.6041748802606681
160.0,20.943785056703945,0.4049677101619426,0.011293165204466892,10.828944944106958,0.6041847055443801
161.0,20.947431333722033,0.4051517452493263,0.011286464463115868,10.828435393826586,0.6041944956009916
162.0,20.951076691102685,0.405335774718747,0.01127976685461191,10.827925937703842,0.6042041507935817
163.0,20.95472112847396,0.40551979848625,0.01127307236791637,10.827416575816668,0.6042139899408204
164.0,20.95836464546437,0.4057038164679048,0.011266381023330925,10.826907308244522,0.6042240515399311
165.0,20.96200724170291,0.40588782857980443,0.011259692817923368,10.826398135066707,0.604235340608202
166.0,20.965648916819035,0.40607183473807357,0.011253007722580569,10.825889056361499,0.6042464728468581
167.0,20.969289670442663,0.40625583485885625,0.011246325770449669,10.825380072208247,0.6042570260076604
168.0,20.972929502204206,0.40643982885832236,0.011239646961878041,10.824871182686268,0.604267416938195
169.0,20.976568411734505,0.4066238166526719,0.011232971297192605,10.824362387874833,0.6042777380763547
170.0,20.98020639866491,0.4068077981581326,0.011226298776698798,10.82385368785318,0.6042880598361212
171.0,20.983843462627224,0.4069917732909492,0.011219629400679472,10.823345082700506,0.604298311974716
172.0,20.98747960325372,0.4071757419674044,0.011212963169393918,10.822836572495966,0.6043083227590175
173.0,20.991114820177145,0.4073597041038027,0.011206300083076878,10.822328157318681,0.6043181474323026
174.0,20.994749113030707,0.40754365961647543,0.011199640141937715,10.82181983724773,0.6043279017015629
175.0,20.998382481448115,0.40772760842178063,0.011192983346159497,10.82131161236216,0.6043374974505811
176.0,21.002014925063506,0.4079115504361062,0.01118632969589809,10.82080348274097,0.6043478756017646
177.0,21.005646443511537,0.4080954855758672,0.011179679191281445,10.820295448463128,0.604358388521295
178.0,21.009277036427303,0.40827941375750343,0.01117303183240883,10.819787509607561,0.6043687401446188
179.0,21.012906703446397,0.40846333489748826,0.011166387619350123,10.819279666253156,0.6043788264625942
180.0,21.01653544420487,0.40864724891231513,0.011159746552145192,10.818771918478765,0.6043888744547932
181.0,21.020163258339256,0.408831155718514,0.011153108630803182,10.818264266363197,0.6043991795914057
182.0,21.023790145486558,0.40901505523263704,0.011146473854162451,10.817756709985224,0.6044099985416075
183.0,21.027416105284264,0.40919894737127466,0.011139842221476416,10.817249249423565,0.6044210882715543
184.0,21.031041137370327,0.4093828320510311,0.011133213732677814,10.816741884756906,0.6044320654096228
185.0,21.034665241383188,0.40956670918855265,0.011126588387668253,10.816234616063896,0.6044433537883257
186.0,21.038288416961745,0.4097505787005069,0.011119966186317925,10.81572744342314,0.6044545431242653
187.0,21.041910663745398,0.4099344405035998,0.01111334712846518,10.815220366913213,0.6044658381024446
188.0,21.04553198137402,0.4101182945145521,0.01110673121391625,10.814713386612645,0.6044772467636007
189.0,21.049152369487935,0.4103021406501341,0.011100118442444998,10.814206502599928,0.6044893007478386
190.0,21.052771827727987,0.41048597882712773,0.011093508813792645,10.813699714953522,0.6045011029908995
191.0,21.056390355735466,0.41066980896235544,0.011086902327667588,10.81319302375184,0.6045125276623406
192.0,21.060007953152162,0.4108536309726694,0.011080298975039758,10.812686429073425,0.6045235440190225
193.0,21.063624619620327,0.4110374447749443,0.011073698694208229,10.812179930997901,0.6045342363453613
