k,PSNR,SSIM,mse,Log-Gradient,Angle
0.0,20.329673203431856,0.40753808838482314,0.0,10.92244277547202,0.6016404955134683
1.0,20.332843599526868,0.40769299253038555,0.010212773257091193,10.922006963520897,0.6023489546589254
2.0,20.336583220829418,0.4078774415388071,0.012224666348667326,10.921495727045654,0.6023612738835424
3.0,20.340348483928118,0.4080633162993375,0.012342421616781134,10.920981085584149,0.6023717650922227
4.0,20.344116049913495,0.408249355929113,0.012352407481973417,10.92046608821006,0.6023857231340549
5.0,20.347884095758964,0.4084354599838164,0.012351361036821976,10.91995098465268,0.6023992293997185
6.0,20.35165238587316,0.4086216154232229,0.01234848423091279,10.91943580990491,0.6024139285099988
7.0,20.35542086809564,0.40880781919527376,0.012345091162153994,10.918920572745577,0.6024274529518971
8.0,20.35918952911917,0.40899407046158515,0.012341509304785215,10.918405276105059,0.6024403325992144
9.0,20.362958364204378,0.4091803688766258,0.012337852166141226,10.917889921220088,0.6024528487006343
10.0,20.366727371802597,0.4093667143123596,0.012334163984728877,10.917374508641378,0.6024650697661335
11.0,20.37049655115826,0.40955310668334216,0.012330462234646913,10.916859038680874,0.6024771325087569
12.0,20.374265901516054,0.4097395459154681,0.012326743276229837,10.916343511596459,0.6024890258524055
13.0,20.37803542234849,0.40992603194586147,0.01232301544491486,10.915827927570781,0.6025007874394738
14.0,20.381805113033042,0.41011256470731644,0.012319276063856563,10.915312286803388,0.6025124387125087
15.0,20.385574973084847,0.4102991441377955,0.012315530904407906,10.914796589393054,0.6025240387687854
16.0,20.38934500211454,0.41048577018380894,0.012311781759094326,10.914280835453319,0.6025355681113109
17.0,20.393115199738993,0.4106724427924911,0.012308032071003769,10.913765025042224,0.6025472711034824
18.0,20.39688556557938,0.41085916191140054,0.01230427837785273,10.913249158231018,0.6025588762611807
19.0,20.400656099259912,0.41104592748838537,0.012300525007063393,10.912733235070244,0.6025704707598697
20.0,20.404426800406803,0.41123273947147343,0.012296772059779826,10.912217255607002,0.602582068804996
21.0,20.408197668647674,0.4114195978088038,0.012293015819881336,10.911701219893242,0.602593808199331
22.0,20.411968703611,0.4116065024485795,0.012289257370286787,10.911185127980485,0.6026057107560264
23.0,20.415739904925818,0.4117934533390248,0.01228549912905569,10.910668979911101,0.602617660088777
24.0,20.419511272221463,0.41198045042835757,0.01228173941243893,10.91015277573026,0.6026296277741224
25.0,20.423282805127393,0.4121674936647765,0.012277979776603184,10.909636515479528,0.602641502690599
26.0,20.427054503273023,0.41235458299644034,0.012274217925205711,10.909120199227605,0.6026532436273243
27.0,20.430826366287683,0.4125417183714574,0.012270454772761102,10.90860382701749,0.6026649744415687
28.0,20.434598393800503,0.4127288997378729,0.012266691600494472,10.908087398890258,0.6026767189686614
29.0,20.43837058544032,0.41291612704367103,0.012262928677568508,10.907570914884547,0.6026885096075981
30.0,20.442142940835687,0.41310340023676684,0.012259166008096102,10.90705437503886,0.6027002896032593
31.0,20.445915459614795,0.4132907192649958,0.012255403594672712,10.906537779391604,0.6027120218665251
32.0,20.449688141405453,0.41347808407611564,0.012251641438682733,10.906021127981118,0.6027236893852727
33.0,20.453460985835086,0.4136654946178113,0.012247879267942494,10.905504420843501,0.602735277496913
34.0,20.457233992530703,0.4138529508376781,0.012244116914217484,10.904987658013725,0.602746869968033
35.0,20.461007161113898,0.41404045268257295,0.012240354112655557,10.90447083952846,0.6027583883471485
36.0,20.464780491206835,0.41422800009941046,0.012236590684982975,10.903953965422042,0.6027699848575393
37.0,20.468553982435417,0.4144155930355565,0.012232826289178078,10.903437035738452,0.6027816399327013
38.0,20.472327634425078,0.41460323143829786,0.012229061890709688,10.90292005051699,0.6027933017480968
39.0,20.4761014468008,0.4147909152548324,0.012225297699180664,10.902403009795778,0.6028049069437386
40.0,20.479875419187117,0.4149786444322723,0.012221533715482392,10.901885913612974,0.6028164389757579
41.0,20.48364955120808,0.4151664189176407,0.012217769940315738,10.901368762006788,0.6028278739310916
42.0,20.487423842487274,0.41535423865787235,0.01221400637421958,10.900851555015478,0.6028392788869669
43.0,20.491198292647805,0.41554210359981836,0.012210243017595032,10.900334292677352,0.6028506827238601
44.0,20.494972901312313,0.41573001369023665,0.012206479870725762,10.899816975030777,0.6028621502656377
45.0,20.498747668102936,0.41591796887579374,0.012202716933794803,10.89929960211418,0.6028735756401653
46.0,20.502522592641363,0.41610596910307596,0.012198954206898642,10.898782173966048,0.6028851547057484
47.0,20.506297674548776,0.4162940143185759,0.012195191690058721,10.898264690624929,0.6028968645699847
48.0,20.51007291344589,0.416482104468694,0.012191429288310244,10.897747152125108,0.6029087245022402
49.0,20.51384830895291,0.4166702394997468,0.012187666950668382,10.89722955849878,0.6029204504471856
50.0,20.51762386068958,0.41685841935795837,0.012183904812923889,10.896711909784708,0.6029319837549465
51.0,20.521399568275132,0.4170466439894644,0.01218014287510955,10.896194206021715,0.6029429531423639
52.0,20.52517543132833,0.4172349133403124,0.01217638108329441,10.895676447249002,0.6029538102729571
53.0,20.528951449467435,0.41742322735645515,0.012172619391451357,10.895158633506055,0.6029648455016102
54.0,20.532727622310226,0.4176115859837631,0.012168857896695546,10.89464076483189,0.6029761631121066
55.0,20.53650394947399,0.4177999891680147,0.012165096599068313,10.894122841265586,0.6029877205299187
56.0,20.540280430575525,0.4179884368548927,0.01216133549859432,10.893604862846301,0.602998965948117
57.0,20.544057065231126,0.4181769289900004,0.012157574595283615,10.89308682961326,0.6030098886394982
58.0,20.547833853056616,0.41836546551884113,0.012153813889133714,10.892568741605762,0.6030206403714602
59.0,20.551610793667315,0.41855404638684185,0.012150053380131186,10.892050598863182,0.6030313147724161
60.0,20.555387886678055,0.4187426715393221,0.012146293068253282,10.891532401424968,0.6030418994283501
61.0,20.55916513170317,0.4189313409215272,0.01214253295346922,10.891014149330635,0.6030525267818614
62.0,20.5629425283565,0.4191200544786062,0.012138773035741438,10.89049584261978,0.6030636042501778
63.0,20.5667200762514,0.4193088121556166,0.012135013315026465,10.88997748133207,0.6030746511950273
64.0,20.570497775000725,0.4194976138975277,0.012131253791276055,10.889459065507245,0.6030857300749526
65.0,20.574275624216828,0.4196864596492234,0.012127494333876691,10.888940595186833,0.603097012263697
66.0,20.578053623511593,0.4198753493554929,0.012123735049122954,10.888422070411021,0.6031085290366932
67.0,20.5818317724964,0.4200642829610355,0.012119975964881615,10.887903491219712,0.6031201034360032
68.0,20.585610070782117,0.420253260410466,0.012116217081208084,10.887384857652876,0.603131721869802
69.0,20.589388517979145,0.42044228164830066,0.012112458398152236,10.886866169750563,0.6031434805169905
70.0,20.59316711369736,0.42063134661897544,0.012108699915758752,10.886347427552899,0.6031551974691438
71.0,20.596945857546167,0.42082045526682893,0.012104941634067268,10.885828631100079,0.6031668981542014
72.0,20.600724749134457,0.42100960753611477,0.012101183553112712,10.88530978043238,0.6031784453893557
73.0,20.604503788070634,0.4211988033710002,0.01209742567292569,10.88479087559015,0.6031898247054102
74.0,20.608282973962595,0.42138804271555125,0.012093667993532606,10.884271916613816,0.6032009925891355
75.0,20.612062306417766,0.42157732551375116,0.012089910514955973,10.883752903543877,0.6032119001897895
76.0,20.615841785043038,0.42176665170949806,0.012086153237214584,10.88323383642091,0.6032227231024737
77.0,20.619621409444825,0.4219560212465894,0.012082396160323663,10.882714715285566,0.6032336504899346
78.0,20.623401179229045,0.4221454340687467,0.012078639284294942,10.882195540178575,0.6032451921231723
79.0,20.62718109400111,0.4223348901195849,0.012074882609136897,10.881676311140742,0.6032567025275355
80.0,20.630961153365945,0.4225243893426495,0.012071126134854752,10.881157028212945,0.6032681647851318
81.0,20.63474135692796,0.4227139316813762,0.012067369861450518,10.880637691436142,0.6032796346953072
82.0,20.638521704291065,0.4229035170791208,0.0120636137889231,10.880118300851366,0.6032909784303325
83.0,20.642302195058704,0.4230931454791584,0.012059857917268404,10.879598856499728,0.6033021337236911
84.0,20.646082828833777,0.42328281682465424,0.012056102246479234,10.87907935842241,0.6033131503997596
85.0,20.649863605218716,0.423472531058702,0.01205234677654549,10.878559806660677,0.6033240178318144
86.0,20.65364452381544,0.4236622881242938,0.012048591507454028,10.87804020125587,0.6033349214075822
87.0,20.657425584225358,0.4238520879643417,0.01204483643918881,10.8775205422494,0.6033457294356487
88.0,20.66120678604941,0.4240419305216622,0.012041081571730814,10.87700082968276,0.6033565255992034
89.0,20.664988128887995,0.4242318157389831,0.012037326905058111,10.876481063597524,0.603367358428266
90.0,20.66876961234104,0.4244217435589397,0.012033572439145792,10.875961244035334,0.6033780987390817
91.0,20.672551236007976,0.42461171392408587,0.012029818173966159,10.875441371037915,0.6033890353961323
92.0,20.6763329994877,0.42480172677688155,0.012026064109488447,10.874921444647066,0.603399783012458
93.0,20.680114902378634,0.4249917820596932,0.012022310245679025,10.874401464904667,0.6034104416964304
94.0,20.683896944278686,0.42518187971480903,0.012018556582501384,10.873881431852668,0.6034209892198037
95.0,20.687679124785276,0.4253720196844118,0.012014803119916031,10.873361345533104,0.6034315084920233
96.0,20.69146144349531,0.42556220191060906,0.012011049857880625,10.872841205988081,0.6034419079017134
97.0,20.695243900005188,0.42575242633541627,0.012007296796349893,10.872321013259791,0.60345209918725
98.0,20.69902649391082,0.4259426929007522,0.012003543935275678,10.871800767390491,0.6034620308643177
99.0,20.702809224807606,0.4261330015484514,0.011999791274606899,10.871280468422528,0.6034716321445405
100.0,20.70659209229044,0.42632335222025936,0.01199603881428967,10.87076011639832,0.6034810914730891
101.0,20.710375095953708,0.42651374485783355,0.011992286554267154,10.870239711360359,0.603491161691068
102.0,20.714158235391317,0.42670417940273636,0.011988534488434332,10.86971925335128,0.6035026438005293
103.0,20.717941510196646,0.4268946557964464,0.011984782609589538,10.869198742413822,0.603514389110151
104.0,20.721724919962583,0.42708517398035584,0.011981030917723678,10.868678178590807,0.6035231036118079
105.0,20.725508464281496,0.42727573389575696,0.011977279412838859,10.86815756192513,0.6035321261526218
106.0,20.729292142745265,0.42746633548386104,0.011973528094948203,10.867636892459767,0.6035417231476865
107.0,20.733075954945264,0.4276569786857886,0.011969776964075968,10.867116170237766,0.6035519966749469
108.0,20.736859900472354,0.42784766344257114,0.011966026020257326,10.866595395302255,0.6035626743302295
109.0,20.7406439789169,0.4280383896951523,0.01196227526353841,10.866074567696437,0.6035735510220984
110.0,20.74442818986875,0.4282291573843828,0.01195852469397604,10.865553687463596,0.6035844480192266
111.0,20.748212532917265,0.4284199664510275,0.01195477431163774,10.865032754647089,0.6035953437094054
112.0,20.751997007651276,0.42861081683576135,0.011951024116601672,10.86451176929035,0.6036039607878136
113.0,20.75578161365914,0.4288017084791669,0.01194727410895637,10.863990731436894,0.6036162758585704
114.0,20.759566350528665,0.4289926413217482,0.01194352428880063,10.863469641130314,0.6036272758802785
115.0,20.763351217847198,0.42918361530390575,0.011939774656243508,10.862948498414271,0.6036382187024543
116.0,20.767136215201557,0.4293746303659607,0.011936025211403922,10.862427303332515,0.6036489335980352
117.0,20.770921342178042,0.42956568644814497,0.011932275954410774,10.861906055928864,0.6036595468451141
118.0,20.774706598362474,0.42975678349059826,0.011928526885402508,10.861384756247224,0.603670169707083
119.0,20.77849198334015,0.4299479214333733,0.01192477800452714,10.860863404331567,0.6036806640946584
120.0,20.782277496695862,0.4301391002164341,0.01192102931194192,10.860342000225952,0.6036911203570309
121.0,20.786063138013894,0.43033031977965247,0.011917280807813254,10.859820543974507,0.6037014394888984
122.0,20.789848906878028,0.43052158006281976,0.011913532492316338,10.859299035621447,0.6037102735437312
123.0,20.793634802871527,0.4307128810056289,0.011909784365635114,10.85877747521106,0.6037211494662863
124.0,20.797420825577156,0.4309042225476895,0.011906036427006758,10.85825586278772,0.6037315506622843
125.0,20.801206974577173,0.43109560462852,0.011902288673834634,10.857734198395914,0.6037418896289823
126.0,20.80499324945332,0.43128702718755446,0.011898541106437403,10.8572124820802,0.6037522489505137
127.0,20.808779649786835,0.4314784901641337,0.011894793725147238,10.85669071388522,0.6037626766960968
128.0,20.812566175158448,0.4316699934975117,0.011891046530309379,10.856168893855688,0.6037734612674789
129.0,20.816352825148382,0.43186153712685416,0.011887299522281439,10.8556470220364,0.6037845585223593
130.0,20.82013959933633,0.43205312099123705,0.011883552701432957,10.855125098472227,0.6037956407880604
131.0,20.823926497301514,0.432244745029651,0.01187980606814469,10.854603123208117,0.6038069258774014
132.0,20.827713518622623,0.43243640918099246,0.011876059622807996,10.854081096289098,0.6038184274305811
133.0,20.83150066287783,0.4326281133840742,0.011872313365824113,10.853559017760274,0.6038299022607306
134.0,20.835287929644807,0.43281985757762304,0.011868567297603648,10.85303688766683,0.6038412385381533
135.0,20.839075318500726,0.43301164170027145,0.011864821418565697,10.852514706054023,0.6038525332262313
136.0,20.842862829022234,0.4332034656905622,0.011861075710753993,10.851992472966094,0.603863975895295
137.0,20.846650460785476,0.43339532948695586,0.011857330175338668,10.851470188447465,0.6038755005204554
138.0,20.850438213366076,0.4335872330278268,0.011853584829130006,10.85094785254364,0.6038872161236438
139.0,20.854226086339153,0.43377917625144996,0.01184983967260633,10.850425465300203,0.6038989781058498
140.0,20.85801407927931,0.43397115909602363,0.011846094706251748,10.849903026762817,0.6039106788856494
141.0,20.861802191760653,0.4341631814996483,0.011842349930555275,10.84938053697722,0.6039223284150824
142.0,20.865590423356764,0.4343552434003442,0.011838605346010164,10.848857995989231,0.6039339456607444
143.0,20.86937877364072,0.43454734473604173,0.011834860932012815,10.84833540384417,0.6039455166101002
144.0,20.873167242185083,0.4347394854445807,0.011831116694733076,10.847812760587612,0.6039570203274263
145.0,20.876955828561886,0.4349316654637106,0.01182737263667291,10.847290066264971,0.6039684306585652
146.0,20.88074453234269,0.43512388473110014,0.011823628743132716,10.846767320920973,0.6039800015723714
147.0,20.8845333530985,0.4353161431843288,0.011819885016839136,10.846244524601094,0.6039914575110918
148.0,20.88832229039985,0.4355084407608789,0.011816141468055989,10.845721677351209,0.604002713352979
149.0,20.892111343816712,0.4357007773981593,0.011812398077914388,10.84519877921592,0.6040137095197261
150.0,20.895900512918587,0.43589315303347703,0.011808654868675224,10.844675830241217,0.6040255466729137
151.0,20.899689797274444,0.43608556760406314,0.011804911848900744,10.84415283047363,0.6040373228877348
152.0,20.90347919645272,0.4362780210470512,0.01180116901922648,10.84362977995978,0.6040494323617599
153.0,20.9072687100214,0.43647051329949327,0.011797426380287343,10.843106678746361,0.6040621209934846
154.0,20.911058337547885,0.4366630442983555,0.011793683932716887,10.84258352688015,0.6040745389978611
155.0,20.914848078599107,0.4368556139805058,0.011789941677146568,10.842060324408004,0.6040855933154216
156.0,20.918637932741465,0.4370482222827366,0.011786199614204785,10.841537071376862,0.6040962276487082
157.0,20.922427899540853,0.43724086914174887,0.011782457744516249,10.841013767833747,0.6041068061606186
158.0,20.926217978562654,0.4374335544941488,0.011778716068701008,10.840490413825757,0.6041173146662847
159.0,20.93000816937173,0.4376262782764706,0.01177497458737374,10.839967009400075,0.6041277925578398
160.0,20.933798471532427,0.4378190404251434,0.01177123330114295,10.839443554603966,0.6041380609581694
161.0,20.937588884608598,0.438011840876519,0.011767492210610186,10.838920049484774,0.6041484515712378
162.0,20.94137940816354,0.4382046795668657,0.011763751283929133,10.83839649408787,0.6041593361339956
163.0,20.945170041760083,0.43839755643235206,0.011760010550885833,10.837872888460591,0.6041700653159592
164.0,20.948960784960498,0.4385904714090713,0.011756270015221663,10.837349232650542,0.604180609343251
165.0,20.952751637326582,0.4387834244330231,0.01175252967753283,10.836825526705422,0.6041909469690201
166.0,20.95654259841958,0.4389764154401235,0.011748789516567642,10.836301770672797,0.6042010494803602
167.0,20.96033366780025,0.4391694443661924,0.01174504954189824,10.835777964600409,0.604211005045843
168.0,20.964124845028817,0.4393625111469777,0.011741309765872742,10.8352541085362,0.6042208560091918
169.0,20.967916129665007,0.43955561571812735,0.011737570184083824,10.834730202528188,0.6042309450374946
170.0,20.971707521268023,0.4397487580152119,0.011733830802055848,10.834206246624488,0.6042410382291
171.0,20.97549901939656,0.43994193797370307,0.01173009162043543,10.833682240873292,0.6042512361367001
172.0,20.97929062360877,0.44013515552900134,0.011726352637837294,10.833158185322876,0.6042620051415929
173.0,20.983082333462335,0.44032841061640404,0.011722613854486969,10.832634080021606,0.6042733160098669
174.0,20.98687414851438,0.44052170317113837,0.01171887527108418,10.832109925017921,0.6042842049313862
175.0,20.990666068321545,0.4407150331283267,0.011715136888315646,10.831585720360348,0.6042947830346032
176.0,20.994458092439935,0.4409084004230241,0.011711398706854417,10.831061466097495,0.6043052326746557
177.0,20.998250220425142,0.4411018049901796,0.011707660699962893,10.83053716227726,0.6043155317016461
178.0,21.002042451832242,0.4412952467646713,0.011703922891527998,10.830012808948306,0.6043258545634729
179.0,21.005834786215804,0.44148872568128095,0.011700185286901074,10.829488406159507,0.6043361978020344
180.0,21.009627223129876,0.4416822416747106,0.011696447886728658,10.828963953959825,0.6043464366208294
181.0,21.013419762127977,0.4418757946795698,0.011692710691639468,10.828439452398301,0.6043565201953082
182.0,21.01721240276313,0.44206938463038786,0.011688973686124987,10.827914901523632,0.6043658347867044
183.0,21.021005144587825,0.4422630114616036,0.0116852368791314,10.827390301384813,0.6043739450960229
184.0,21.024797987154034,0.44245667510756875,0.011681500279364649,10.826865652031143,0.604384854140276
185.0,21.02859093001323,0.44265037550254976,0.011677763887389718,10.826340953512004,0.604393865853422
186.0,21.032383972716357,0.44284411258073275,0.011674027703751021,10.825816205876858,0.604404226892812
187.0,21.03617711481384,0.44303788627620805,0.011670291728971967,10.825291409175252,0.6044155261650331
188.0,21.039970355855594,0.4432316965229886,0.011666555963554683,10.824766563456818,0.6044270120103689
189.0,21.043763695391014,0.4434255432549941,0.011662820407979954,10.824241668771268,0.6044382639025534
190.0,21.04755713296897,0.44361942640605917,0.01165908506270678,10.823716725168403,0.6044493984456168
191.0,21.051350668137832,0.4438133459099394,0.011655349928172442,10.823191732698097,0.6044604091367863
192.0,21.055144300445434,0.4440073017003004,0.011651615004792525,10.822666691410321,0.6044710448596505
193.0,21.0589380294391,0.4442012937107198,0.011647880292960638,10.822141601355117,0.6044813071264387
