k,PSNR,SSIM,mse,Log-Gradient,Angle
0.0,20.329673203431856,0.40753808838482314,0.0,10.92244277547202,0.6016404955134683
1.0,20.33284219122198,0.40769292371505256,0.010208237270745815,10.92200715712126,0.6023489495053871
2.0,20.336578743186948,0.40787722194328796,0.012214761326561296,10.921496341374295,0.602361257081786
3.0,20.34033926464697,0.40806286329555447,0.012327059460412654,10.920982349311952,0.6023717376194676
4.0,20.344100415884654,0.4082485867913195,0.012331574532401255,10.920468230181418,0.6023856768900577
5.0,20.34786037386524,0.40843429193279307,0.012325058913180809,10.919954233775108,0.6023991645384715
6.0,20.35161890309169,0.40861996563204855,0.012316717543883667,10.919440395133517,0.6024138361958771
7.0,20.355375951522163,0.40880560479086786,0.012307865219043534,10.918926723078819,0.6024273258004708
8.0,20.359131505974997,0.40899120852523785,0.012298829648911094,10.91841322058322,0.6024401628534889
9.0,20.362885561839846,0.40917677644433725,0.012289724454682665,10.917899888924456,0.6024526315351153
10.0,20.36663811769919,0.4093623083750779,0.012280593923559397,10.917386728693776,0.6024647996824887
11.0,20.37038917293026,0.4095478041871889,0.012271455550170372,10.91687374024331,0.602476803093538
12.0,20.37413872691221,0.40973326376193836,0.01226230568770512,10.916360923870792,0.6024886349718853
13.0,20.37788677925356,0.4099186869920286,0.012253152683929333,10.915848279798487,0.602500328326533
14.0,20.381633329469526,0.41010407376605923,0.012243993860821993,10.915335808265201,0.602511906443207
15.0,20.385378377214543,0.4102894239779886,0.012234834989856756,10.914823509408818,0.6025234278302717
16.0,20.389121922240022,0.41047473753053,0.012225677872962871,10.914311383381662,0.6025348727828982
17.0,20.39286396430515,0.41066001432722915,0.01221652595496041,10.913799430280378,0.6025464946777327
18.0,20.39660450317492,0.4108452542722521,0.012207375762498095,10.913287650214617,0.6025580125910058
19.0,20.400343538618856,0.41103045727025767,0.012198231635127744,10.91277604327308,0.602569508512515
20.0,20.40408107041003,0.4112156232262816,0.012189093669932751,10.912264609540845,0.6025809969148523
21.0,20.407817098324394,0.4114007520456841,0.012179958128031153,10.911753349107652,0.6025926034206741
22.0,20.411551622140287,0.41158584363408135,0.012170826108164218,10.911242262062565,0.6026043815763763
23.0,20.415284641638106,0.4117708978973167,0.012161700026516432,10.910731348485315,0.6026162136129062
24.0,20.41901615660005,0.4119559147414329,0.012152578190902078,10.910220608458253,0.6026280490380969
25.0,20.42274616680995,0.4121408940726509,0.01214346215344796,10.909710042060004,0.6026398134511073
26.0,20.42647467205313,0.41232583579735604,0.0121343496197026,10.90919964939589,0.6026514285905062
27.0,20.430201672116283,0.4125107398220819,0.012125241498210919,10.908689430545486,0.6026630098171746
28.0,20.43392716678745,0.4126956060535146,0.012116139079417672,10.908179385586168,0.6026746055826554
29.0,20.437651155855868,0.4128804343984722,0.012107042627225693,10.907669514592712,0.6026862438614436
30.0,20.44137363911201,0.4130652247639011,0.012097952143148766,10.90715981763955,0.6026978652396637
31.0,20.445094616347493,0.4132499770568823,0.012088867627180516,10.906650294800823,0.6027094517738727
32.0,20.448814087355053,0.413434691184629,0.012079789078101564,10.906140946150396,0.6027209692198006
33.0,20.452532051928564,0.41361936705446256,0.012070716218332028,10.905631771759696,0.6027324110605524
34.0,20.456248509862963,0.413804004573839,0.01206164887362512,10.905122771698801,0.6027438282994375
35.0,20.45996346094929,0.41398860364967066,0.01205258677382004,10.904613946039312,0.60275518118846
36.0,20.463676904980694,0.4141731641891315,0.01204352974050201,10.904105294850304,0.6027665519283217
37.0,20.467388841755564,0.41435768610005813,0.012034477413910625,10.903596818210433,0.6027780136346745
38.0,20.471099271073324,0.41454216929041277,0.012025430793582221,10.9030885161932,0.6027894648044209
39.0,20.474808192734464,0.41472661366826685,0.012016390071454032,10.902580388870849,0.6028009058066958
40.0,20.478515606540526,0.41491101914180956,0.01200735524581067,10.902072436315455,0.6028122507368822
41.0,20.482221512294082,0.4150953856193547,0.011998326314747407,10.901564658598943,0.6028235165786818
42.0,20.485925909798738,0.41527971300933153,0.01198930327619865,10.901057055793084,0.6028347005766691
43.0,20.489628798859158,0.4154640012202804,0.011980286127962434,10.900549627969495,0.602845891805397
44.0,20.49333017928103,0.4156482501608636,0.011971274867720757,10.900042375199652,0.6028571136930004
45.0,20.497030050871075,0.41583245973986577,0.011962269493056434,10.899535297554882,0.6028683243585826
46.0,20.50072841343704,0.41601662986617577,0.011953270001467224,10.899028395106374,0.6028795784766926
47.0,20.50442526678772,0.41620076044881055,0.011944276390377576,10.898521667925172,0.602890976446158
48.0,20.508120610732913,0.4163848513968955,0.011935288565375873,10.898015116078112,0.6029025310313004
49.0,20.51181444508346,0.4165689026196833,0.011926306461189319,10.89750873962924,0.6029140829452428
50.0,20.515506769651218,0.41675291402653514,0.011917330219476774,10.897002538649204,0.602925487093224
51.0,20.51919758424908,0.4169368855269328,0.011908359837683914,10.896496513208518,0.6029365336133711
52.0,20.522886888690962,0.417120817030475,0.011899395257863826,10.895990663377862,0.6029470958570425
53.0,20.526574682791793,0.41730470844687995,0.011890436431636791,10.895484989228006,0.6029577903767501
54.0,20.530260966367543,0.4174885596859781,0.011881483454710958,10.894979490829025,0.6029686062302368
55.0,20.533945739235193,0.4176723706577255,0.011872536324548856,10.89447416825087,0.6029798417519319
56.0,20.537629001212757,0.417856141272186,0.011863595038598115,10.893969021563352,0.6029910065315051
57.0,20.54131075211927,0.41803987143955457,0.011854659594293661,10.893464050836153,0.6030018665439744
58.0,20.54499099177479,0.4182235610701294,0.011845729989059655,10.89295925613882,0.6030124501328501
59.0,20.548669720000397,0.4184072100743372,0.01183680622031132,10.892454637540766,0.603022894373107
60.0,20.5523469366182,0.4185908183627202,0.011827888285456379,10.89195019511127,0.6030332626324737
61.0,20.556022641451325,0.41877438584593585,0.011818976181896397,10.891445928919484,0.6030435561283594
62.0,20.559696834323915,0.4189579124347664,0.01181006990702805,10.890941839034422,0.6030539275788857
63.0,20.56336951506116,0.4191413980401089,0.011801169458244,10.890437925524965,0.6030647264801822
64.0,20.567040683489243,0.41932484257297786,0.011792274820881599,10.88993418846002,0.6030754417490577
65.0,20.570710339435383,0.41950824594451036,0.01178338585418665,10.889430627910146,0.6030862174355466
66.0,20.574378482727834,0.4196916080659608,0.011774502709322282,10.888927243943762,0.6030971638829299
67.0,20.578045113195852,0.4198749288487027,0.011765625383792312,10.888424036629152,0.6031083401916569
68.0,20.581710230669735,0.4200582082042315,0.01175675387509699,10.887921006034468,0.6031195581749352
69.0,20.585373834980786,0.4202414460441534,0.011747888180732913,10.887418152227726,0.603130812998379
70.0,20.589035925961348,0.42042464228020887,0.011739028298193215,10.886915475276814,0.6031421940408989
71.0,20.592696503444763,0.420607796824247,0.011730174224968125,10.886412975249481,0.603153526313858
72.0,20.596355567265412,0.4207909095882398,0.011721325958544882,10.885910652213349,0.6031648788233845
73.0,20.600013117258694,0.4209739804842787,0.011712483496408441,10.885408506235901,0.6031760724464122
74.0,20.603669153261023,0.42115700942457757,0.011703646836041505,10.884906537384492,0.6031871194274614
75.0,20.607323675109832,0.42133999632147273,0.011694815974924737,10.884404745726336,0.6031979669667438
76.0,20.61097668264359,0.421522941087411,0.011685990910537049,10.88390313132852,0.6032085636543197
77.0,20.614628175701768,0.4217058436349705,0.011677171640355666,10.883401694257996,0.6032190253249737
78.0,20.61827815412488,0.4218887038768459,0.01166835816185637,10.88290043458158,0.6032295184375503
79.0,20.62192661775444,0.4220715217258548,0.011659550472513413,10.882399352365958,0.6032404017779845
80.0,20.625573566432983,0.4222542970949319,0.01165074856979985,10.88189844767768,0.6032515524052627
81.0,20.629219000004078,0.4224370298971369,0.011641952451187376,10.881397720583157,0.6032625740135205
82.0,20.63286291831232,0.4226197200456443,0.01163316211414657,10.880897171148677,0.6032736643664259
83.0,20.636505321203295,0.4228023674537669,0.011624377556146778,10.880396799440383,0.6032846556146484
84.0,20.64014620852364,0.4229849720349151,0.011615598774656398,10.87989660552429,0.6032954891381642
85.0,20.643785580120987,0.42316753370264054,0.011606825767142514,10.879396589466278,0.6033061630217551
86.0,20.647423435844008,0.4233500523706089,0.011598058531071327,10.878896751332087,0.6033167051094127
87.0,20.651059775542386,0.42353252795260454,0.011589297063907872,10.878397091187333,0.6033271440836993
88.0,20.654694599066808,0.4237149603625447,0.011580541363116224,10.877897609097484,0.6033376011215507
89.0,20.658327906269026,0.42389734951445573,0.011571791426159344,10.877398305127883,0.6033479467879168
90.0,20.661959697001755,0.4240796953224974,0.011563047250499149,10.876899179343736,0.6033583312251819
91.0,20.665589971118766,0.42426199770094586,0.011554308833596608,10.876400231810113,0.6033686946157063
92.0,20.669218728474842,0.42444425656420415,0.011545576172911503,10.875901462591946,0.6033790036364569
93.0,20.672845968925778,0.424626471826793,0.011536849265902703,10.875402871754035,0.6033894749102412
94.0,20.67647169232839,0.42480864340335733,0.011528128110027888,10.874904459361046,0.6033997641784049
95.0,20.68009589854052,0.42499077120867246,0.011519412702743813,10.874406225477506,0.6034099675266529
96.0,20.683718587421023,0.42517285515762443,0.011510703041506067,10.873908170167807,0.6034200669936148
97.0,20.687339758829765,0.42535489516523656,0.01150199912376923,10.873410293496207,0.6034301262551339
98.0,20.69095941262764,0.4255368911466421,0.011493300946986813,10.872912595526827,0.6034400935157763
99.0,20.694577548676563,0.42571884301710466,0.011484608508611181,10.872415076323653,0.6034498676052493
100.0,20.698194166839453,0.42590075069201855,0.011475921806093768,10.871917735950532,0.6034594191568372
101.0,20.701809266980273,0.4260826140868863,0.011467240836884855,10.87142057447118,0.6034686762535922
102.0,20.705422848963963,0.4262644331173444,0.01145856559843368,10.87092359194917,0.6034777148644763
103.0,20.70903491265652,0.42644620769915703,0.01144989608698992,10.87042678844796,0.6034869681786977
104.0,20.712645457924932,0.42662793774820096,0.011441232291209393,10.86993016403093,0.6034973157949207
105.0,20.716254484637222,0.4268096231804865,0.011432574205753962,10.86943371876133,0.6035089570761151
106.0,20.719861992662416,0.42699126391214276,0.011423921828141292,10.868937452702282,0.603518514060395
107.0,20.723467981870563,0.4271728598594309,0.011415275155901612,10.86844136591676,0.6035266951874698
108.0,20.72707245213273,0.42735441093872867,0.011406634186577296,10.867945458467608,0.6035354833441385
109.0,20.730675403321,0.42753591706654365,0.011397998917723189,10.867449730417526,0.6035447926206579
110.0,20.73427683530847,0.4277173781595079,0.01138936934690615,10.866954181829078,0.603554754528049
111.0,20.73787674796926,0.4278987941343775,0.01138074547170518,10.866458812764689,0.6035649614146407
112.0,20.74147514117849,0.42808016490802986,0.011372127289711143,10.865963623286648,0.6035752806579543
113.0,20.74507201481232,0.42826149039747735,0.011363514798526712,10.8654686134571,0.6035856254687179
114.0,20.748667368747896,0.42844277051984464,0.011354907995766165,10.86497378333806,0.6035959716772887
115.0,20.75226120286341,0.4286240051923971,0.011346306879055293,10.864479132991395,0.603604195693074
116.0,20.755853517038044,0.42880519433251346,0.011337711446031141,10.863984662478838,0.6036157161964991
117.0,20.75944431115201,0.4289863378577068,0.01132912169434202,10.863490371861982,0.6036261905084005
118.0,20.763033585086532,0.42916743568560617,0.011320537621647038,10.86299626120228,0.6036365694693455
119.0,20.76662133872384,0.42934848773397793,0.011311959225616192,10.86250233056105,0.6036467472973596
120.0,20.770207571947186,0.42952949392070955,0.011303386503929962,10.862008579999461,0.6036567987756297
121.0,20.773792284640837,0.42971045416380943,0.011294819454279209,10.861515009578556,0.6036668493606837
122.0,20.777375476690075,0.42989136838142034,0.011286258074364938,10.861021619359224,0.6036768231504178
123.0,20.780957147981187,0.43007223649180876,0.011277702361898014,10.860528409402226,0.6036866996222063
124.0,20.784537298401485,0.4302530584133657,0.011269152314598919,10.86003537976818,0.6036966155397824
125.0,20.788115927839282,0.4304338340646136,0.011260607930197638,10.85954253051756,0.603704232114148
126.0,20.79169303618391,0.4306145633641943,0.011252069206433206,10.859049861710703,0.6037147544168969
127.0,20.79526862332572,0.4307952462308858,0.011243536139999958,10.858557373407821,0.6037247824343345
128.0,20.79884268915606,0.43097588258358605,0.011235008726190982,10.858065065669006,0.6037345464616044
129.0,20.80241523356731,0.4311564723413215,0.01122648696287915,10.857572938554211,0.6037442968631817
130.0,20.805986256452837,0.4313370154232487,0.011217970847950634,10.857080992123251,0.6037540457240663
131.0,20.80955575770705,0.4315175117486458,0.011209460379304224,10.856589226435794,0.6037639121203374
132.0,20.81312373722534,0.43169796123692583,0.01120095555485082,10.856097641551376,0.6037740670010231
133.0,20.81669019490413,0.4318783638076214,0.011192456372512607,10.855606237529381,0.6037844563144721
134.0,20.82025513064085,0.43205871938040197,0.011183962830222757,10.85511501442906,0.603794855151144
135.0,20.823818544333925,0.43223902787505547,0.011175474925924357,10.854623972309522,0.6038054350681983
136.0,20.827380435882816,0.4324192892115053,0.011166992657570044,10.85413311122973,0.6038161848442518
137.0,20.830940805187975,0.4325995033097955,0.011158516023121214,10.853642431248508,0.6038269822044766
138.0,20.834499652150875,0.4327796700901059,0.01115004499198144,10.853151932423055,0.6038376550790614
139.0,20.838056976673982,0.43295978947273933,0.011141579579217431,10.852661614811383,0.6038482018442178
140.0,20.8416127786608,0.43313986137812416,0.0111331197931102,10.852171478471899,0.6038588770358938
141.0,20.8451670580158,0.4333198857268274,0.011124665631684173,10.851681523462874,0.6038696051402296
142.0,20.848719814644497,0.43349986243953476,0.011116217092969612,10.851191749842434,0.6038805007070733
143.0,20.85227104845341,0.43367979143706253,0.011107774175001913,10.850702157668563,0.6038915104280813
144.0,20.85582075935005,0.4338596726403605,0.011099336875820804,10.850212746999107,0.6039025033631373
145.0,20.859368947242952,0.4340395059705023,0.011090905170294192,10.849723517891208,0.6039134368027196
146.0,20.86291561204164,0.4342192913486897,0.011082479062956431,10.849234470402044,0.603924320902471
147.0,20.866460753656668,0.43439902869625846,0.011074058566678365,10.848745604588991,0.6039351593889687
148.0,20.87000437199958,0.43457871793466807,0.011065643639002315,10.848256920507414,0.603945960746436
149.0,20.87354646698293,0.4347583589855117,0.01105723430901961,10.847768418214192,0.6039566890989552
150.0,20.877087038520283,0.4349379517705069,0.011048830552853278,10.847280097765475,0.6039673413384747
151.0,20.880626086526203,0.4351174962115048,0.01104043238925182,10.84679195921758,0.6039780896083573
152.0,20.884163610916264,0.43529699223048207,0.011032039797311058,10.846304002625708,0.6039887966562291
153.0,20.887699611607037,0.4354764397495538,0.011023652802442567,10.845816228046452,0.6039993118641983
154.0,20.891234088516107,0.4356558386909468,0.011015271401413763,10.84532863553625,0.6040096289094913
155.0,20.89476704156207,0.43583518897703605,0.011006895592407896,10.844841225151393,0.6040201819333706
156.0,20.8982984706645,0.43601449053031577,0.010998525373606622,10.844353996948039,0.6040313311725812
157.0,20.901828375744014,0.43619374327341537,0.010990160743189292,10.843866950982195,0.6040421899543865
158.0,20.905356756722192,0.43637294712909047,0.010981801699332298,10.843380087309733,0.6040536797907556
159.0,20.908883613521645,0.43655210202022593,0.01097344824020814,10.842893405986379,0.604065496893265
160.0,20.91240894606599,0.4367312078698428,0.010965100363984872,10.842406907067723,0.6040768613692454
161.0,20.91593275427983,0.4369102646010852,0.010956758068825184,10.841920590609206,0.6040870374725379
162.0,20.919455038088778,0.4370892721372321,0.01094842135288573,10.841434456666134,0.6040968904585413
163.0,20.922975797419454,0.4372682304016899,0.010940090214316502,10.840948505293667,0.604106699084773
164.0,20.926495032199476,0.4374471393179969,0.01093176465126002,10.840462736546824,0.6041164401185267
165.0,20.93001274235747,0.4376259988098252,0.010923444642314789,10.839977150479369,0.6041261637599523
166.0,20.933528927823048,0.43780480880097206,0.01091513018814065,10.839491747145084,0.6041357212135264
167.0,20.937043588526834,0.4379835692153646,0.01090682130389397,10.839006526598586,0.6041451443000102
168.0,20.940556724400455,0.4381622799770697,0.010898517987710778,10.838521488894353,0.6041549690262521
169.0,20.944068335376524,0.4383409410102718,0.010890220237715915,10.838036634086718,0.6041649646654693
170.0,20.947578421388677,0.43851955223929506,0.010881928018379575,10.837551962229583,0.604174809195713
171.0,20.951086982371528,0.4386981135886024,0.010873641360001322,10.837067473376985,0.604184497199006
172.0,20.954594018260696,0.43887662498276664,0.010865360262259538,10.836583167582841,0.6041939660830601
173.0,20.958099528992825,0.4390550863465075,0.010857084723257594,10.836099044900916,0.6042032376387407
174.0,20.96160351450552,0.4392334976046726,0.01084881474108557,10.835615105384841,0.604212365170203
175.0,20.965105974737412,0.43941185868224003,0.010840550313819747,10.8351313490881,0.6042214973977925
176.0,20.968606909628107,0.43959016950432256,0.010832291439522275,10.834647776064037,0.6042307730759672
177.0,20.97210631911824,0.43976842999615334,0.010824038116240907,10.834164386365854,0.60424003057283
178.0,20.975604203149402,0.4399466400831131,0.010815790333971472,10.8336811800466,0.6042493926255232
179.0,20.97910056166423,0.44012479969070295,0.010807548095665748,10.833198157159197,0.6042591188785552
180.0,20.98259539460631,0.4403029087445583,0.010799311399617751,10.83271531775642,0.604269535257731
181.0,20.986088701920256,0.4404809671704477,0.01079108024398458,10.83223266189091,0.6042797217208297
182.0,20.98958048355167,0.4406589748942711,0.010782854612398213,10.831750189614771,0.6042895504144415
183.0,20.99307073944715,0.4408369318420559,0.010774634503450804,10.83126790097999,0.6042991494003885
184.0,20.99655946955428,0.4410148379399705,0.010766419930034157,10.830785796038795,0.6043085785166951
185.0,21.00004667382165,0.4411926931143076,0.010758210890274978,10.83030387484327,0.6043179774205624
186.0,21.003532352198846,0.4413704972914962,0.010750007382282786,10.829822137445364,0.604327325177556
187.0,21.007016504636425,0.44154825039809714,0.010741809387435465,10.829340583896458,0.6043366777956497
188.0,21.010499131085968,0.44172595236079887,0.010733616914106106,10.82885921424805,0.6043460389887035
189.0,21.01398023150004,0.44190360310642823,0.010725429967196018,10.82837802855166,0.6043552481156114
190.0,21.01745980583218,0.44208120256194067,0.010717248544752011,10.827897026858663,0.6043639533069818
191.0,21.020937854036944,0.4422587506544223,0.01070907264480157,10.827416209220296,0.6043716587160238
192.0,21.024414376069874,0.44243624731109743,0.01070090226535268,10.82693557568765,0.6043804120530497
193.0,21.027889371887486,0.4426136924593238,0.010692737404393757,10.82645512631167,0.6043902274697761
