k,PSNR,SSIM,mse,Log-Gradient,Angle
0.0,20.329673203431856,0.40753808838482314,0.0,10.92244277547202,0.6016404955134683
1.0,20.332843036054737,0.40769296499691304,0.010210958378907887,10.922007040981688,0.6023489525969633
2.0,20.33658142914467,0.4078773536698326,0.012220702801341906,10.92149597286329,0.6023612671610689
3.0,20.340344794604373,0.40806313501870145,0.012336273578460063,10.92098159129631,0.6023717541023995
4.0,20.34410979302242,0.408249048112727,0.012344068906389583,10.920466945448311,0.602385704626971
5.0,20.347874601190075,0.4084349924773303,0.012340831989588524,10.919952285098349,0.6023992034386341
6.0,20.351638983374684,0.4086209550443023,0.012335765975006175,10.919437645282917,0.6024138915581578
7.0,20.355402887284132,0.4088069327342028,0.012330185240033608,10.918923034822761,0.6024274020506425
8.0,20.359166299482197,0.40899292468146325,0.012324417354179712,10.918408456689605,0.6024402646446466
9.0,20.36292921510176,0.4091789305134798,0.012318575871201163,10.91789391216123,0.6024527617573492
10.0,20.36669163246719,0.40936495007522894,0.012312705049967494,10.917379401829244,0.6024649616307917
11.0,20.37045355069646,0.4095509832543367,0.01230682237367931,10.916864926046378,0.6024770006109096
12.0,20.37421496890839,0.409737029949847,0.012300924200709985,10.916350485111193,0.6024888693216658
13.0,20.37797588645013,0.40992309007208255,0.012295018872319046,10.915836079246963,0.6025006035581982
14.0,20.381736302574367,0.4101091635271195,0.012289103712087844,10.915321708693746,0.6025122254848302
15.0,20.38549621667198,0.4102952502262544,0.012283184492311713,10.914807373590795,0.6025237940781961
16.0,20.38925562822984,0.41048135008939884,0.012277263010170231,10.914293074092035,0.6025352895310049
17.0,20.39301453674154,0.4106674630371556,0.0122713427103372,10.913778810295849,0.6025469601113368
18.0,20.3967729417055,0.41085358899060914,0.012265420127001709,10.91326458231378,0.6025585302175778
19.0,20.400530842623645,0.4110397278711982,0.012259499593326497,10.912750390236598,0.6025700852029799
20.0,20.404288239000454,0.41122587960061097,0.012253581209726819,10.912236234151587,0.6025816378621899
21.0,20.408045130342277,0.4114120441006965,0.012247661251882315,10.911722114150844,0.6025933252084867
22.0,20.411801516156824,0.41159822129344364,0.012241740809928191,10.911208030325962,0.6026051776756308
23.0,20.415557395952888,0.4117844111009224,0.012235822302066927,10.910693982759346,0.6026170801624945
24.0,20.419312769240054,0.41197061344525937,0.012229904042073345,10.910179971536156,0.6026289949296251
25.0,20.423067635528525,0.41215682824862715,0.012223987585390044,10.909665996737933,0.6026408258775703
26.0,20.426821994328982,0.4123430554332203,0.012218070637330639,10.90915205847321,0.6026525160907285
27.0,20.43057584515253,0.4125292949212509,0.012212154110913271,10.908638156824825,0.6026641868716375
28.0,20.434329187510542,0.41271554663492793,0.012206239291939135,10.90812429187362,0.6026758710059638
29.0,20.438082020914663,0.41290181049646885,0.012200326448361738,10.90761046369796,0.6026876017096998
30.0,20.441834344876717,0.41308808642807643,0.012194415584148246,10.907096672376028,0.6026993176835124
31.0,20.44558615890869,0.41327437435195447,0.012188506701747155,10.906582917985856,0.6027109907329725
32.0,20.44933746252271,0.413460674190284,0.012182599802394936,10.906069200605362,0.6027225990927452
33.0,20.45308825523101,0.4136469858652329,0.012176694612646043,10.905555520310172,0.6027341282606867
34.0,20.456838536545913,0.4138333092989613,0.01217079096275632,10.905041877174726,0.6027456498740121
35.0,20.46058830597486,0.4140196444129394,0.012164888586649112,10.904528271275124,0.602757102274376
36.0,20.46433756302637,0.41420599112876905,0.01215898730687956,10.904014702685085,0.6027686038957655
37.0,20.468086307213206,0.4143923493685711,0.01215308677523994,10.903501171487978,0.6027801841929298
38.0,20.4718345380482,0.4145787190544514,0.012147187971685415,10.902987677762331,0.6027917633776106
39.0,20.475582255044223,0.41476510010848594,0.012141291099658563,10.902474221585491,0.6028033003284708
40.0,20.47932945771422,0.4149514924527442,0.012135396159900561,10.901960803034793,0.6028147585058871
41.0,20.48307614557117,0.4151378960092562,0.012129503152962396,10.90144742218757,0.6028261228902215
42.0,20.486822318128116,0.4153243107000495,0.01212361207923337,10.900934079121146,0.6028374381528336
43.0,20.490567974898116,0.41551073644711584,0.012117722938965545,10.90042077391286,0.6028487572218095
44.0,20.494313115394306,0.4156971731724322,0.012111835732293828,10.899907506640044,0.6028601279801036
45.0,20.498057739129827,0.4158836207979533,0.012105950459253006,10.899394277380043,0.602871463645582
46.0,20.501801845617894,0.41607007924561,0.012100067119791724,10.898881086210208,0.6028828998602528
47.0,20.50554543437174,0.4162565484373113,0.012094185713784204,10.898367933207902,0.6028944906176648
48.0,20.509288504904642,0.4164430282949439,0.01208830614735822,10.897854818446278,0.6029062397839099
49.0,20.51303105672991,0.4166295187403777,0.0120824283647535,10.897341741996144,0.6029178973656022
50.0,20.516773089360896,0.41681601969545357,0.012076552504970799,10.896828703934917,0.6029293970637155
51.0,20.520514602310985,0.41700253108199714,0.012070678567899106,10.896315704340033,0.6029403920487834
52.0,20.52425559509361,0.41718905282181035,0.012064806498897003,10.895802743289247,0.6029511002431318
53.0,20.52799606722222,0.41737558483667175,0.012058936251881602,10.895289820860546,0.6029620040752124
54.0,20.53173601821033,0.417562127048336,0.01205306792429646,10.89477693713139,0.6029730214250043
55.0,20.53547544757148,0.4177486793785494,0.012047201516041908,10.894264092179258,0.6029845763366168
56.0,20.53921435481923,0.41793524174902164,0.01204133702700224,10.893751286081644,0.6029957843362861
57.0,20.542952739467207,0.4181218140814494,0.01203547445704781,10.893238518916062,0.6030066792325711
58.0,20.54669060102907,0.4183083962975076,0.012029613806036971,10.892725790760046,0.6030173520996057
59.0,20.550427939018512,0.41849498831885096,0.01202375507381785,10.892213101691151,0.6030279389887033
60.0,20.554164752949266,0.41868159006711053,0.012017898260229875,10.891700451786946,0.6030384288917933
61.0,20.55790104233511,0.41886820146389936,0.012012043365105089,10.891187841125024,0.6030488865754454
62.0,20.56163680668986,0.4190548224308141,0.012006190388269378,10.890675269782996,0.6030597040085673
63.0,20.565372045527383,0.41924145288941866,0.01200033932954343,10.89016273783849,0.6030706753343676
64.0,20.569106758361567,0.4194280927612745,0.01199449018874374,10.889650245369161,0.6030815279930013
65.0,20.572840944706368,0.4196147419679084,0.011988642817662732,10.889137792454603,0.6030926681347838
66.0,20.576574604075763,0.41980140043083236,0.011982797355824207,10.888625379172598,0.6031039649275334
67.0,20.58030773598379,0.41998806807154204,0.011976953815052581,10.888113005600786,0.6031153395477923
68.0,20.584040339944533,0.42017474481150857,0.011971112195270441,10.887600671816832,0.6031268378625092
69.0,20.58777241547211,0.4203614305721874,0.011965272496395356,10.887088377898417,0.60313837392148
70.0,20.59150396208068,0.42054812527501495,0.011959434718340422,10.88657612392324,0.6031499256312547
71.0,20.59523497928446,0.42073482884139946,0.011953598861014313,10.886063909969023,0.6031615456351528
72.0,20.598965466597715,0.42092154119275244,0.011947764924321744,10.885551736113507,0.6031730000344084
73.0,20.602695423534733,0.42110826225043924,0.011941932908163711,10.885039602434452,0.6031843281931591
74.0,20.606424849609866,0.4212949919358239,0.011936102812437777,10.884527509009633,0.6031954490494128
75.0,20.610153744337516,0.4214817301702493,0.011930274637038222,10.884015455916852,0.6032063287433119
76.0,20.61388210723213,0.4216684768750363,0.011924448381856355,10.883503443233927,0.6032170156820709
77.0,20.617609937808208,0.4218552319714907,0.01191862404678055,10.882991471038691,0.6032277257239396
78.0,20.621337235580274,0.42204199538089965,0.011912801631696428,10.882479539409003,0.6032387529433693
79.0,20.625064000062935,0.4222287670245348,0.011906981136487032,10.881967648422737,0.6032501648213354
80.0,20.628790230770832,0.4224155468236428,0.01190116256103276,10.881455798157788,0.6032614488005146
81.0,20.632515927218655,0.42260233469946096,0.011895345905211626,10.880943988692067,0.603272788903675
82.0,20.636241088921153,0.4227891305732065,0.01188953116889917,10.880432220103508,0.603284043221571
83.0,20.639965715393117,0.42297593436608083,0.011883718351968576,10.879920492470061,0.6032951394521541
84.0,20.643689806149403,0.4231627459992613,0.011877907454290706,10.879408805869698,0.6033060693310736
85.0,20.647413360704906,0.42334956539391677,0.01187209847573414,10.878897160380404,0.6033168650031357
86.0,20.65113637857458,0.4235363924711952,0.011866291416165197,10.878385556080188,0.6033275642447646
87.0,20.654858859273446,0.42372322715223215,0.011860486275447871,10.877873993047075,0.603338273283568
88.0,20.65858080231656,0.4239100693581408,0.011854683053443933,10.877362471359108,0.603348866221255
89.0,20.662302207219042,0.4240969190100232,0.011848881750012969,10.87685099109435,0.6033595392973415
90.0,20.66602307349607,0.4242837760289604,0.011843082365012296,10.876339552330883,0.6033701504019469
91.0,20.66974340066288,0.4244706403360216,0.011837284898296982,10.875828155146806,0.6033807689049158
92.0,20.67346318823475,0.42465751185225953,0.011831489349719901,10.875316799620233,0.6033914856402048
93.0,20.67718243572703,0.42484439049871353,0.011825695719131703,10.874805485829299,0.6034020146932443
94.0,20.680901142655127,0.4250312761963977,0.011819904006380767,10.87429421385216,0.603412474763814
95.0,20.684619308534508,0.42521816886632463,0.011814114211313266,10.873782983766983,0.6034228239607363
96.0,20.688336932880688,0.4254050684294814,0.011808326333773206,10.87327179565196,0.6034331528391882
97.0,20.69205401520925,0.4255919748068468,0.011802540373602313,10.872760649585294,0.6034433388573657
98.0,20.695770555035846,0.4257788879193789,0.01179675633064013,10.872249545645209,0.6034533150333946
99.0,20.69948655187617,0.4259658076880235,0.01179097420472395,10.871738483909947,0.6034630375520166
100.0,20.703202005245988,0.42615273403371834,0.011785193995688972,10.871227464457768,0.6034724252405387
101.0,20.706916914661132,0.4263396668773743,0.011779415703368084,10.870716487366943,0.603481740604748
102.0,20.710631279637497,0.4265266061398994,0.011773639326674263,10.870205552715781,0.6034916993880827
103.0,20.714345099691016,0.42671355174217646,0.011767864856403297,10.869694660582669,0.6035030308628874
104.0,20.718058374337733,0.42690050360509063,0.011762092289321817,10.86918381104602,0.6035144977120525
105.0,20.721771103093715,0.42708746164949646,0.011756321625319971,10.868673004184267,0.6035230345396767
106.0,20.725483285475104,0.4272744257962468,0.011750552864299482,10.868162240075858,0.603531869948097
107.0,20.729194920998125,0.4274613959661726,0.011744786006173675,10.867651518799258,0.6035412629641204
108.0,20.73290600917906,0.4276483720800997,0.011739021050867337,10.867140840432944,0.6035512822436709
109.0,20.736616549534247,0.4278353540588344,0.011733257998316692,10.866630205055412,0.6035617294036273
110.0,20.740326541580103,0.4280223418231734,0.011727496848469235,10.86611961274517,0.60357238417301
111.0,20.744035984833108,0.4282093352938985,0.011721737601283675,10.865609063580743,0.6035830495569066
112.0,20.74774487880981,0.42839633439178093,0.011715980256729795,10.865098557640673,0.6035937548718276
113.0,20.751453223026836,0.4285833390375789,0.01171022481478835,10.864588095003512,0.6036028471603083
114.0,20.75516101700088,0.428770349152044,0.011704471275450821,10.864077675747833,0.6036140801439908
115.0,20.75886826024869,0.4289573646559011,0.011698719638719386,10.86356729995222,0.6036249684208804
116.0,20.762574952287103,0.42914438546987793,0.011692969904606776,10.86305696769527,0.6036357041928698
117.0,20.76628109263303,0.4293314115146815,0.011687222073135991,10.8625466790556,0.603646233715774
118.0,20.76998668080343,0.4295184427110122,0.011681476144340187,10.862036434111836,0.6036566341639958
119.0,20.773691716315355,0.4297054789795591,0.01167573211826251,10.861526232942625,0.6036670290650455
120.0,20.777396198685942,0.4298925202409966,0.011669989994955898,10.86101607562662,0.6036773404169488
121.0,20.781100127432367,0.43007956641598866,0.01166424977448284,10.860505962242495,0.6036875580850476
122.0,20.78480350207191,0.43026661742519146,0.011658511456915138,10.859995892868936,0.6036978363705445
123.0,20.78850632212192,0.4304536731892441,0.011652775042333835,10.85948586758464,0.6037054749966045
124.0,20.7922085870998,0.43064073362878413,0.011647040530828798,10.858975886468324,0.6037167876693651
125.0,20.795910296523058,0.4308277986644313,0.011641307922150535,10.858465949598719,0.6037270742427717
126.0,20.79961144990927,0.4310148682167936,0.011635577213077092,10.857956057054603,0.6037371614776944
127.0,20.803312046776085,0.43120194220647995,0.011629848403831869,10.857446208914771,0.6037473000607304
128.0,20.807012086641222,0.43138902055407824,0.01162412149465189,10.856936405258029,0.603757427314679
129.0,20.810711569022512,0.43157610318017076,0.011618396485787058,10.856426646163197,0.6037678097295814
130.0,20.81441049343782,0.4317631900053294,0.011612673377499824,10.855916931709105,0.6037784435424297
131.0,20.818108859405122,0.4319502809501188,0.011606952170064267,10.8554072619746,0.6037892413898867
132.0,20.821806666442466,0.43213737593509133,0.01160123286376577,10.854897637038537,0.6038001383411323
133.0,20.825503914067973,0.43232447488079,0.011595515458900137,10.854388056979788,0.6038112321783219
134.0,20.829200601799865,0.43251157770775245,0.011589799955773108,10.853878521877233,0.6038224707453278
135.0,20.83289672915642,0.4326986843365004,0.011584086354699543,10.853369031809768,0.6038336109525845
136.0,20.836592295656025,0.43288579468755817,0.01157837465600284,10.852859586856297,0.6038446260416515
137.0,20.84028730081713,0.4330729086814327,0.01157266483002715,10.852350187094055,0.6038556796444277
138.0,20.843981744158285,0.4332600262386263,0.011566956899175126,10.851840832601598,0.6038668423400023
139.0,20.84767562519811,0.4334471472796257,0.011561250870481782,10.85133152345788,0.6038781262298568
140.0,20.85136894345531,0.4336342717249229,0.011555546744330814,10.850822259741864,0.6038895525687206
141.0,20.85506169844868,0.4338213994949913,0.011549844521111484,10.85031304153253,0.6039010142478501
142.0,20.85875388969711,0.43400853051030147,0.01154414420121802,10.849803868908865,0.6039124022436106
143.0,20.862445516719564,0.43419566469131254,0.01153844578504855,10.84929474194987,0.6039237445878354
144.0,20.8661365790351,0.4343828019584839,0.01153274924320655,10.848785660733789,0.603935049078089
145.0,20.869827076162863,0.4345699422322573,0.01152705459762014,10.848276625339452,0.6039463105446271
146.0,20.873517007622088,0.43475708543307595,0.011521361839286103,10.84776763584507,0.603957498613989
147.0,20.877206372932086,0.43494423148137473,0.01151567096090581,10.847258692328511,0.6039686040256408
148.0,20.880895171612277,0.4351313802975776,0.011509981959026012,10.84674979486804,0.6039798502624373
149.0,20.884583403182155,0.4353185318021034,0.011504294848926285,10.846240943542394,0.6039909959492921
150.0,20.888271067161316,0.4355056859153686,0.011498609611062591,10.845732138428938,0.6040019488321835
151.0,20.89195816306944,0.4356928425577801,0.011492926266245389,10.845223379606326,0.6040126570994179
152.0,20.895644690426295,0.43588000164974017,0.011487244822884279,10.844714667153672,0.6040240495550271
153.0,20.899330648751743,0.4360671631116409,0.011481565281519814,10.8442060011501,0.6040355629979709
154.0,20.903016037565756,0.4362543268638768,0.011475887642691687,10.84369738167475,0.6040471686736074
155.0,20.906700856388383,0.43644149282682804,0.011470211906937996,10.843188808806765,0.6040594002800008
156.0,20.91038510473977,0.4366286609208753,0.01146453807479449,10.842680282625311,0.6040716831441347
157.0,20.914068782140163,0.43681583106639416,0.011458866146793712,10.84217180320956,0.6040827554696998
158.0,20.917751888109898,0.4370030031837475,0.011453196123464281,10.841663370638694,0.6040930998552045
159.0,20.92143442216942,0.43719017719330483,0.011447528005330117,10.841154984991912,0.6041034167473557
160.0,20.925116383839253,0.4373773530154224,0.011441861792909567,10.840646646348421,0.6041136038415748
161.0,20.92879777264004,0.43756453057045724,0.011436197486714766,10.840138354787442,0.6041238256437006
162.0,20.932478588092508,0.4377517097787578,0.011430535087250754,10.839630110388203,0.6041338726998366
163.0,20.936158829717485,0.43793889056066676,0.011424874573720578,10.839121913228658,0.6041437699783675
164.0,20.9398384970359,0.438126072836531,0.011419215953152009,10.838613763387183,0.6041541335696351
165.0,20.94351758956877,0.4383132565266871,0.011413559240745065,10.838105660943068,0.6041646251281759
166.0,20.94719610683725,0.4385004415514671,0.011407904436999685,10.837597605975613,0.604174949084953
167.0,20.950874048362547,0.4386876278312013,0.011402251535495537,10.837089598564067,0.604185101002051
168.0,20.954551413665996,0.43887481528622035,0.011396600515600524,10.836581638787496,0.6041950177854293
169.0,20.958228202269048,0.4390620038368453,0.01139095140584549,10.83607372672524,0.604204741255622
170.0,20.96190441369323,0.4392491934033986,0.011385304206711421,10.835565862456647,0.6042142960627929
171.0,20.96558004746019,0.43943638390619494,0.01137965891866676,10.835058046061079,0.6042239735404418
172.0,20.96925510309168,0.439623575265555,0.011374015536659636,10.834550277617899,0.6042336979467533
173.0,20.97292958010955,0.4398107674017879,0.011368374064807625,10.834042557206487,0.6042434987174358
174.0,20.976603478035763,0.4399979602352044,0.011362734503264749,10.833534884906246,0.6042534292146687
175.0,20.980276796392396,0.4401851536861123,0.011357096851370952,10.833027260796582,0.6042640377511496
176.0,20.98394953470161,0.44037234767481853,0.011351461109705365,10.832519684956916,0.6042749448920637
177.0,20.987621692485696,0.4405595421216239,0.01134582727883379,10.832012157466677,0.6042854349221974
178.0,20.991293269267047,0.4407467369468376,0.011340195359308273,10.831504678405306,0.6042956240165537
179.0,20.99496426456816,0.44093393207075127,0.011334565326285325,10.830997247851547,0.6043056877058532
180.0,20.998634677911646,0.4411211274136672,0.011328937200622237,10.830489865884726,0.6043156166693339
181.0,21.002304508820217,0.44130832289588984,0.011323310988511618,10.829982532584333,0.6043255600937742
182.0,21.005973756816726,0.4414955184377092,0.011317686690477335,10.829475248029873,0.6043355203601314
183.0,21.00964242142409,0.441682713959427,0.011312064307025735,10.828968012300857,0.6043454099877158
184.0,21.013310502165375,0.44186990938133225,0.011306443820771702,10.828460825476341,0.6043551678090487
185.0,21.01697799856376,0.4420571046237211,0.01130082524432445,10.82795368763571,0.6043643602336778
186.0,21.020644910142508,0.44224429960688943,0.011295208584264216,10.827446598858502,0.6043723307574308
187.0,21.024311236425028,0.4424314942511309,0.011289593841033835,10.826939559224284,0.6043821724115804
188.0,21.02797697693482,0.44261868847674063,0.011283981015056076,10.826432568812615,0.604391836547239
189.0,21.03164213119551,0.4428058822040101,0.011278370106733335,10.825925627703075,0.6044006405787067
190.0,21.03530669873085,0.44299307535323723,0.011272761116447264,10.825418735975244,0.6044115663706695
191.0,21.038970679064693,0.4431802678447128,0.01126715404455881,10.824911893708721,0.6044226689515013
192.0,21.04263407172101,0.44336745959873375,0.011261548891408029,10.824405100983107,0.6044336236420065
193.0,21.04629687622389,0.44355465053559584,0.011255945657313936,10.823898357878013,0.6044443833971833
