k,PSNR,SSIM,mse,Log-Gradient,Angle
0.0,20.329673203431856,0.40753808838482314,0.0,10.92244277547202,0.6016404955134683
1.0,20.332843247333308,0.407692975320819,0.01021163888263216,10.922007011937119,0.6023489533701137
2.0,20.33658210092833,0.4078773866158889,0.01222218889109572,10.921495880695149,0.6023612696816849
3.0,20.340346177848886,0.40806320298656984,0.012338578596345268,10.920981401688804,0.6023717582234468
4.0,20.344112138843855,0.40824916351865964,0.012347195028595385,10.920466624054274,0.6023857115656334
5.0,20.347878160744774,0.40843516774753547,0.012344779100420422,10.91995179755579,0.6023992131714413
6.0,20.351644007843976,0.4086212026140858,0.012340533509844482,10.91943695721734,0.6024139054109984
7.0,20.355409627870667,0.40880726504774695,0.012335772529552513,10.9189221118478,0.6024274211324957
8.0,20.3591750074089,0.4089933541917437,0.012330823693432535,10.918407264407247,0.6024402901188067
9.0,20.362940141611382,0.4091794696822197,0.012325800537939979,10.917892416161932,0.6024527943490257
10.0,20.366705028821936,0.409365611372867,0.012320747314416704,10.917377567691993,0.6024650021656092
11.0,20.370469668177826,0.4095517791600012,0.012315681502759244,10.916862719338745,0.6024770500519944
12.0,20.374234058816864,0.40973797295131864,0.012310599462186635,10.916347871389373,0.6024889279944814
13.0,20.377998200105022,0.40992419266577756,0.012305509531884437,10.915833024055807,0.6025006724801628
14.0,20.381762091313536,0.41011043821805354,0.012300409035384438,10.915318177566805,0.6025123054059883
15.0,20.385525731851622,0.41029670952802366,0.012295303744738553,10.914803332050344,0.6025238857900984
16.0,20.389289121224262,0.4104830065241414,0.012290195455490939,10.914288487649108,0.6025353939150704
17.0,20.393052258942987,0.410669329135529,0.012285087611830635,10.913773644450266,0.6025470766682285
18.0,20.39681514452389,0.4108556772917766,0.012279976749380672,10.91325880255417,0.6025586599089797
19.0,20.4005777774864,0.411042050922779,0.012274867199260457,10.912743962040429,0.6025702296427012
20.0,20.40434015735225,0.4112284499586663,0.012269759062269037,10.912229122985194,0.6025817993593906
21.0,20.40810228364485,0.4114148743297041,0.012264648617273029,10.911714285469438,0.6025935062059199
22.0,20.411864155888757,0.4116013239662661,0.012259536951810975,10.911199449573676,0.6026053774426278
23.0,20.415625773609392,0.4117877987987795,0.012254426484141908,10.910684615369249,0.6026172974639029
24.0,20.419387136332748,0.4119742987577067,0.012249315529080622,10.910169782930279,0.6026292320864097
25.0,20.42314824358522,0.4121608237735197,0.012244205642451383,10.909654952327275,0.6026410795025957
26.0,20.42690909489349,0.4123473737766949,0.012239094529058366,10.909140123657806,0.6026527886941447
27.0,20.430669689784423,0.41253394869769294,0.012233983102591085,10.908625296993744,0.602664481886663
28.0,20.434430027784952,0.41272054846694567,0.012228872647244678,10.908110472405001,0.6026761887656971
29.0,20.438190108422056,0.41290717301486496,0.01222376343153708,10.907595649959031,0.6026879419019714
30.0,20.441949931222677,0.4130938222718286,0.012218655459600951,10.907080829723132,0.6026996818153996
31.0,20.445709495713732,0.4132804961681699,0.012213548734050839,10.906566011764475,0.6027113771246366
32.0,20.449468801422025,0.4134671946341915,0.012208443256289675,10.906051196150145,0.6027230075867788
33.0,20.45322784787427,0.41365391760014597,0.012203338753456578,10.905536382944954,0.602734558785036
34.0,20.45698663459705,0.4138406649962463,0.012198235056484898,10.905021572212567,0.6027461069493654
35.0,20.460745161111863,0.41402743675200454,0.012193131899869163,10.904506764018315,0.6027575841373741
36.0,20.464503426941043,0.4142142327970157,0.012188029105963536,10.903991958425184,0.6027691207337146
37.0,20.46826143161097,0.4144010530613815,0.0121829263289939,10.903477155505808,0.6027807288095609
38.0,20.472019174647862,0.41458789747515135,0.012177824543588964,10.90296235532805,0.602792339768525
39.0,20.47577665557778,0.41477476596832136,0.012172723955614742,10.902447557958595,0.6028039022334332
40.0,20.479533873926606,0.4149616584708526,0.01216762456598002,10.901932763464146,0.602815387981433
41.0,20.483290829220092,0.4151485749126466,0.012162526375403325,10.901417971911423,0.6028267786002205
42.0,20.487047520983776,0.4153355152235551,0.012157429384441434,10.90090318336717,0.602838126932865
43.0,20.490803948743043,0.4155224793333894,0.012152333593513654,10.900388397898164,0.6028494769491662
44.0,20.49456011202309,0.4157094671718964,0.01214723900292216,10.899873615571204,0.602860885165117
45.0,20.498316010348958,0.41589647866879004,0.0121421456128688,10.899358836453127,0.6028722524009072
46.0,20.502071643245493,0.41608351375372465,0.01213705342346917,10.898844060610806,0.6028837402255601
47.0,20.50582701023737,0.41627057235629933,0.012131962434764264,10.898329288111142,0.6028953787943043
48.0,20.509582110849067,0.4164576544060792,0.012126872552580622,10.897814519016823,0.6029071703564958
49.0,20.513336944604887,0.4166447598325613,0.012121783723067958,10.897299753388284,0.6029188547121419
50.0,20.517091511028973,0.4168318885652054,0.012116696084130532,10.896784991292565,0.6029303693540566
51.0,20.520845809645248,0.41701904053341754,0.01211160963582295,10.896270232796745,0.6029413524518435
52.0,20.524599839977476,0.4172062156665519,0.012106524323882815,10.89575547796825,0.6029521120934588
53.0,20.528353601549234,0.41739341389391926,0.012101440102359086,10.895240726874766,0.6029630660248132
54.0,20.532107093883916,0.4175806351447709,0.012096357068684107,10.894725979583477,0.6029742009477652
55.0,20.535860316504735,0.4177678793483131,0.012091275222922977,10.894211236161608,0.6029857563565988
56.0,20.539613268934712,0.4179551464337065,0.012086194565124588,10.893696496676432,0.6029969782967609
57.0,20.543365950696703,0.4181424363300543,0.012081115095323624,10.893181761195263,0.6030078823805587
58.0,20.547118361313363,0.41832974896642144,0.012076036813542645,10.892667029785466,0.6030185831836922
59.0,20.550870500307184,0.4185170842718077,0.012070959719793828,10.892152302514445,0.6030292036653085
60.0,20.55462236720047,0.41870444217517894,0.012065883814080362,10.891637579449652,0.6030397275205425
61.0,20.558373961515336,0.4188918226054403,0.012060809096397888,10.891122860658587,0.60305023675154
62.0,20.562125282773724,0.41907922549145676,0.012055735566735724,10.890608146208795,0.603061166270279
63.0,20.565876330497392,0.4192666507620373,0.012050663225077763,10.890093436167863,0.603072166986553
64.0,20.569627104207914,0.41945409834594294,0.012045592071403464,10.889578730603429,0.6030830966869594
65.0,20.573377603426692,0.41964156817189396,0.01204052196422161,10.88906402958502,0.6030942938329872
66.0,20.577127827674943,0.41982906016854926,0.012035453030695182,10.888549333180535,0.6031056696761804
67.0,20.58087777647372,0.4200165742645296,0.012030385288782945,10.888034641457683,0.603117120241609
68.0,20.584627449343863,0.4202041103884037,0.012025318738569777,10.887519954484215,0.603128662984718
69.0,20.588376845806078,0.4203916684686881,0.012020253380135385,10.887005272327933,0.6031402863204666
70.0,20.592125965380866,0.42057924843385636,0.01201518921355478,10.886490595056687,0.6031518883658614
71.0,20.59587480758854,0.4207668502123297,0.01201012623889838,10.885975922738368,0.6031635509916199
72.0,20.599623371949253,0.4209544737324861,0.012005064456232423,10.885461255440914,0.6031750412759257
73.0,20.60337165798298,0.42114211892265424,0.012000003865619223,10.884946593232314,0.6031863899307325
74.0,20.6071196652095,0.4213297857111076,0.011994944467117437,10.8844319361806,0.6031975304223596
75.0,20.610867393148432,0.421517474026083,0.011989886260782285,10.88391728435385,0.6032084150093745
76.0,20.614614841319217,0.421705183795761,0.011984829246665699,10.88340263782019,0.6032191577083345
77.0,20.61836200924111,0.4218929149482788,0.011979773424816624,10.882887996647788,0.603229938446875
78.0,20.622108896433204,0.42208066741172784,0.011974718795280897,10.882373360904866,0.6032411583134646
79.0,20.625855502414385,0.4222684411141498,0.011969665358101619,10.881858730659689,0.6032526130153594
80.0,20.629601826703407,0.422456235983536,0.011964613113319115,10.881344105980563,0.6032639316667004
81.0,20.633347868818824,0.422644051947833,0.01195956206097098,10.880829486935848,0.6032753550291434
82.0,20.637093628279008,0.42283188893494633,0.011954512201092277,10.880314873593946,0.6032866419397501
83.0,20.640839104602172,0.4230197468727253,0.011949463533715354,10.879800266023308,0.6032977599535972
84.0,20.64458429730635,0.423207625688981,0.011944416058870167,10.879285664292428,0.6033087257366855
85.0,20.64832920590941,0.42339552531146835,0.011939369776584092,10.87877106846985,0.6033195423741288
86.0,20.65207382992902,0.42358344566790945,0.01193432468688205,10.878256478624161,0.6033303219594955
87.0,20.655818168882707,0.4237713866859625,0.01192928078978648,10.877741894823995,0.6033410682167101
88.0,20.659562222287807,0.4239593482932526,0.011924238085317321,10.877227317138031,0.6033516865225682
89.0,20.663305989661495,0.4241473304173549,0.011919196573492195,10.876712745634999,0.6033624745510908
90.0,20.667049470520755,0.4243353329858013,0.01191415625432619,10.87619818038367,0.6033731080127893
91.0,20.670792664382432,0.42452335592607,0.011909117127831957,10.875683621452861,0.6033838682970761
92.0,20.67453557076316,0.42471139916560147,0.011904079194019796,10.875169068911438,0.6033945996635818
93.0,20.678278189179437,0.4248994626317857,0.01189904245289747,10.874654522828312,0.6034051659151691
94.0,20.682020519147567,0.4250875462519708,0.011894006904470377,10.874139983272439,0.6034156648720778
95.0,20.685762560183697,0.4252756499534553,0.011888972548741508,10.87362545031282,0.6034260706291532
96.0,20.6895043118038,0.4254637736634974,0.01188393938571134,10.873110924018505,0.6034364332542019
97.0,20.69324577352368,0.4256519173093023,0.01187890741537806,10.872596404458587,0.6034466309145771
98.0,20.69698694485897,0.42584008081803876,0.011873876637737322,10.872081891702205,0.6034565998875341
99.0,20.700727825325146,0.4260282641168292,0.011868847052782459,10.871567385818544,0.603466285475759
100.0,20.70446841443749,0.42621646713274625,0.011863818660504361,10.871052886876837,0.6034756192910955
101.0,20.708208711711155,0.42640468979282037,0.011858791460891605,10.87053839494636,0.6034851057369137
102.0,20.711948716661087,0.42659293202403736,0.011853765452048918,10.870023910096458,0.6034956050637172
103.0,20.715688428802093,0.42678119375334234,0.011848740623720407,10.869509432396585,0.6035075957991293
104.0,20.719427847648802,0.42696947490763043,0.011843716974953771,10.868994961916243,0.6035178695086842
105.0,20.723166972715678,0.42715777541375294,0.011838694505795562,10.868480498724983,0.6035263337046989
106.0,20.72690580351702,0.4273460951985222,0.01183367321630389,10.867966042892391,0.6035354480521523
107.0,20.730644339566965,0.4275344341887002,0.011828653106548194,10.867451594488104,0.6035451377004015
108.0,20.734382580379478,0.42772279231101124,0.01182363417660939,10.866937153581803,0.6035555111302723
109.0,20.738120525468368,0.4279111694921329,0.011818616426579573,10.866422720243213,0.6035661448525059
110.0,20.741858174347275,0.4280995656586964,0.011813599856562041,10.865908294542098,0.6035768690989538
111.0,20.74559552652968,0.42828798073729485,0.011808584466671235,10.865393876548273,0.6035876518957722
112.0,20.749332581528893,0.42847641465447245,0.011803570257032358,10.864879466331594,0.603598265636077
113.0,20.75306933885807,0.4286648673367366,0.011798557227781576,10.864365063961959,0.6036073925227878
114.0,20.756805798030197,0.4288533387105489,0.011793545379065722,10.863850669509313,0.6036191285214031
115.0,20.760541958558104,0.42904182870232327,0.011788534711042045,10.863336283043642,0.6036299323195239
116.0,20.76427781995445,0.42923033723843623,0.011783525223878313,10.86282190463498,0.6036406789725305
117.0,20.768013381731755,0.4294188642452224,0.011778516917752434,10.862307534353402,0.6036512175418015
118.0,20.771748643402347,0.42960740964896815,0.011773509792852303,10.861793172269024,0.6036616760683788
119.0,20.77548360447842,0.42979597337592373,0.011768503849375755,10.86127881845201,0.6036721465265021
120.0,20.77921826447199,0.42998455535229474,0.011763499087530273,10.860764472972566,0.6036824786741204
121.0,20.782952622894925,0.43017315550423807,0.011758495507532725,10.860250135900941,0.6036928036802193
122.0,20.786686679258942,0.4303617737578835,0.01175349310960926,10.85973580730743,0.6037024901612814
123.0,20.790420433075564,0.430550410039303,0.0117484918939951,10.859221487262365,0.6037117516372771
124.0,20.794153883856193,0.43073906427453273,0.011743491860934171,10.858707175836132,0.6037223723352646
125.0,20.797887031112058,0.43092773638957627,0.011738493008690584,10.858192873099169,0.6037326041202079
126.0,20.801619874354238,0.43111642631037705,0.011733495335849,10.857678579121986,0.6037427993204886
127.0,20.805352413093633,0.43130513396285414,0.011728498842789495,10.85716429397513,0.6037530056078054
128.0,20.80908464684102,0.43149385927287504,0.011723503529905607,10.85665001772919,0.6037632904044812
129.0,20.812816575106986,0.4316826021662732,0.011718509397603633,10.856135750454802,0.6037739315672929
130.0,20.816548197401985,0.43187136256883313,0.011713516446302185,10.855621492222639,0.6037848624214731
131.0,20.820279513236315,0.43206014040630353,0.01170852467643152,10.855107243103422,0.6037957797477964
132.0,20.8240105221201,0.4322489356043941,0.011703534088432875,10.85459300316791,0.6038068911922746
133.0,20.82774122356334,0.43243774808876667,0.011698544682757937,10.854078772486906,0.6038182115322123
134.0,20.831471617075845,0.43262657778505087,0.011693556459868026,10.853564551131257,0.6038295136711054
135.0,20.8352017021673,0.4328154246188311,0.011688569420233517,10.853050339171848,0.6038406778335781
136.0,20.838931478347227,0.4330042885156515,0.011683583561377121,10.852536136679438,0.6038517823984891
137.0,20.84266094512499,0.4331931694010189,0.011678598853283626,10.852021943723091,0.6038630282120997
138.0,20.846390102009803,0.43338206720039524,0.01167361532863409,10.851507760373835,0.6038743537046353
139.0,20.850118948510726,0.4335709818392061,0.011668632987960356,10.850993586702733,0.6038858883976481
140.0,20.85384748413668,0.4337599132428374,0.011663651831800508,10.850479422780895,0.6038974604285858
141.0,20.857575708396414,0.43394886133663874,0.011658671860698053,10.849965268679469,0.603908986581742
142.0,20.861303620798537,0.4341378260459107,0.011653693075201097,10.849451124469653,0.6039204495851568
143.0,20.86503122085151,0.4343268072959187,0.011648715472288018,10.848936990222585,0.6039318764994916
144.0,20.868758508063646,0.43451580501189707,0.011643739022764185,10.848422866008665,0.6039432611991694
145.0,20.872485481943098,0.4347048191190284,0.011638763759553595,10.847908751899222,0.6039545938646264
146.0,20.876212141997875,0.43489384954246346,0.011633789652796914,10.847394647964085,0.6039658204644304
147.0,20.879938487735842,0.43508289620731616,0.011628816721038377,10.846880554274119,0.6039771645690156
148.0,20.883664518664705,0.4352719590386542,0.01162384493862783,10.846366470899655,0.603988465388966
149.0,20.887390234292027,0.43546103796151225,0.011618874337033533,10.845852397911838,0.6039995860516665
150.0,20.891115634125228,0.43565013290088683,0.011613904887617897,10.845338335380374,0.604010461861831
151.0,20.894840717671563,0.43583924378173183,0.011608936622722917,10.844824283376843,0.604021760802708
152.0,20.898565484438162,0.43602837052896826,0.011603969543042362,10.844310241972863,0.6040334568875677
153.0,20.902289933932,0.4362175130674764,0.011599003649269756,10.843796211240102,0.6040450902669127
154.0,20.906014065659903,0.4364066713220962,0.011594038942097663,10.843282191250266,0.6040573884205004
155.0,20.909737879128546,0.43659584521763256,0.011589075422216913,10.842768182075103,0.6040698781867898
156.0,20.913461373844484,0.4367850346788553,0.011584113090315814,10.84225418378641,0.604081258130812
157.0,20.917184549314104,0.4369742396304949,0.01157915194707939,10.841740196456021,0.6040917458435695
158.0,20.920907405043664,0.437163459997239,0.011574191993188482,10.841226220155816,0.6041021891116505
159.0,20.924629940539266,0.43735269570374496,0.011569233229319104,10.840712254957715,0.6041124914943704
160.0,20.928352155306882,0.43754194667463103,0.011564275656141562,10.840198300933686,0.6041228393915886
161.0,20.932074048852343,0.4377312128344775,0.011559319274319597,10.839684358155735,0.6041330167703727
162.0,20.935795620681322,0.43792049410782913,0.011554364081243072,10.839170426695707,0.6041430387752835
163.0,20.93951687029936,0.4381097904191919,0.011549410048225834,10.838656506623698,0.6041535048406014
164.0,20.943237797211868,0.4382991016930408,0.011544457208440896,10.838142598011864,0.6041641304736747
165.0,20.94695840092409,0.43848842785380343,0.011539505562549138,10.837628700932404,0.6041745805675927
166.0,20.950678680941152,0.4386777688258873,0.011534555111201019,10.837114815457564,0.6041848551860024
167.0,20.954398636768026,0.43886712453364923,0.011529605829238242,10.836600941659396,0.6041948942467776
168.0,20.958118267909562,0.4390564949014149,0.011524657734055662,10.836087079610145,0.6042047344392522
169.0,20.961837573870458,0.43924587985347546,0.01151971083534189,10.835573229382192,0.604214406059172
170.0,20.96555655415529,0.4394352793140852,0.011514765132759794,10.83505939104795,0.6042242041885914
171.0,20.969275208268478,0.4396246932074632,0.011509820622082374,10.83454556467988,0.6042340476342355
172.0,20.972993535714316,0.4398141214577922,0.011504877308713402,10.834031750350487,0.6042439807413517
173.0,20.976711535996962,0.44000356398922275,0.011499935192418303,10.833517948132325,0.6042540555003872
174.0,20.980429208620425,0.44019302072586663,0.011494994272380824,10.833004158097987,0.6042648458755523
175.0,20.9841465530886,0.440382491591804,0.011490054549347517,10.832490380320113,0.6042758615202123
176.0,20.98786356890524,0.4405719765110759,0.011485116024052092,10.831976614871383,0.6042864471042971
177.0,20.991580255573943,0.4407614754076916,0.011480178697214702,10.83146286182452,0.6042967442103592
178.0,20.99529661259821,0.4409509882056217,0.011475242550737456,10.830949121251756,0.6043069424905216
179.0,20.999012639481375,0.44114051482881106,0.011470307591910284,10.83043539322556,0.6043170223205726
180.0,21.002728335726655,0.4413300552011594,0.01146537383421946,10.829921677818804,0.6043270882418447
181.0,21.00644370083713,0.44151960924654415,0.01146044127835855,10.829407975104399,0.6043371906762286
182.0,21.01015873431575,0.44170917688879435,0.011455509925003915,10.828894285155299,0.6043472028130282
183.0,21.01387343566534,0.44189875805172063,0.01145057976335648,10.828380608044203,0.6043570411993114
184.0,21.017587804388565,0.4420883526590857,0.01144565079316098,10.827866943843821,0.6043660975782028
185.0,21.021301839988,0.44227796063462893,0.011440723027773719,10.82735329262724,0.6043740841272831
186.0,21.025015541966066,0.44246758190205177,0.01143579646780827,10.82683965446759,0.6043846725260112
187.0,21.028728909825052,0.4426572163850231,0.011430871113857983,10.826326029438041,0.6043936232896336
188.0,21.032441943067134,0.442846864007175,0.011425946966495773,10.825812417611806,0.604403598780613
189.0,21.03615464119434,0.44303652469211524,0.011421024026273863,10.825298819062139,0.604414615159741
190.0,21.039867003708594,0.44322619836341204,0.011416102293723444,10.824785233862336,0.6044258752165329
191.0,21.043579030111665,0.4434158849445993,0.011411181769354748,10.824271662085733,0.6044369084028381
192.0,21.047290719905213,0.44360558435918335,0.011406262453656713,10.823758103805712,0.6044478030483139
193.0,21.05100207259077,0.44379529653063554,0.011401344347097072,10.823244559095691,0.6044586077766676
