k,PSNR,SSIM,mse,Log-Gradient,Angle
0.0,20.329673203431856,0.40753808838482314,0.0,10.92244277547202,0.6016404955134683
1.0,20.332843558088275,0.4076929905055316,0.010212639788191613,10.922006969217481,0.6023489545072859
2.0,20.336583089059367,0.40787743507645624,0.01222437484145384,10.921495745124396,0.6023612733891365
3.0,20.340348212581084,0.4080633029662843,0.012341969410809629,10.920981122778912,0.6023717642841041
4.0,20.344115589698923,0.4082493332882244,0.012351794106158913,10.920466151262724,0.6023857217728039
5.0,20.347883397364747,0.40843542559533824,0.012350586469500631,10.919951080309898,0.6023992274900575
6.0,20.35165139996866,0.4086215668449285,0.012347548538484613,10.91943594491766,0.6024139257917581
7.0,20.355419545332367,0.40880775398251945,0.012343994431595664,10.918920753869042,0.6024274492073777
8.0,20.359187820131012,0.408993986167322,0.012340251630106495,10.918405510098577,0.6024403275999948
9.0,20.362956219607625,0.40918026305140964,0.012336433644793771,10.917890214847143,0.6024528423042399
10.0,20.366724742196027,0.4093665845043493,0.01233258471569046,10.917374868669587,0.6024650618103716
11.0,20.370493387123155,0.4095529504383056,0.012328722317593774,10.91685947188198,0.6024771228043936
12.0,20.374262153616243,0.40973936077679035,0.012324842810723451,10.916344024746323,0.6024890143352416
13.0,20.378031041130388,0.40992581545454043,0.012320954530974095,10.915828527449387,0.6025007739069855
14.0,20.381800049025657,0.41011231440197754,0.01231705480156115,10.915312980194829,0.6025124230226284
15.0,20.385569176799827,0.4102988575546859,0.012313149393936313,10.914797383085535,0.602524020763145
16.0,20.38933842404619,0.41048544485680266,0.012309240100996686,10.914281736239152,0.6025355475908222
17.0,20.393107790364322,0.4106720762530971,0.01230533036597612,10.913766039717826,0.6025472482174673
18.0,20.39687727535812,0.410858751688767,0.012301416726361586,10.913250293596912,0.6025588507950074
19.0,20.40064687863452,0.4110454711092997,0.01229750351002662,10.912734497931051,0.6025704423782233
20.0,20.40441659980255,0.4112322344603622,0.01229359081809127,10.912218652771447,0.6025820370882997
21.0,20.408186438472605,0.411419041687747,0.012289674933861938,10.911702758174144,0.6025937726498185
22.0,20.411956394256027,0.4116058927373034,0.012285756940817436,10.91118681419476,0.6026056715174901
23.0,20.415726466764696,0.41179278755490917,0.0122818392570573,10.910670820879764,0.6026176173963786
24.0,20.41949665561085,0.4119797260864462,0.01227792019868021,10.910154778278413,0.6026295811949544
25.0,20.423266960406863,0.4121667082777745,0.012274001321829051,10.90963868643637,0.6026414528732692
26.0,20.427037380765114,0.4123537340747158,0.01227008033031292,10.909122545426419,0.6026531900671853
27.0,20.43080791629791,0.41254080342304783,0.012266158138565849,10.908606355295648,0.6026649164465395
28.0,20.43457856661737,0.41272791626849453,0.012262236028178905,10.908090116089216,0.6026766565535299
29.0,20.43834933133539,0.4129150725567121,0.012258314268255624,10.907573827849847,0.6026884427557306
30.0,20.442120210063592,0.41310227223329665,0.012254392862927867,10.907057490620122,0.6027002179688369
31.0,20.44589120241325,0.41328951524376806,0.012250471814810157,10.90654110444253,0.6027119459673177
32.0,20.449662307995325,0.41347680153357985,0.012246551125305675,10.906024669359489,0.602723609118136
33.0,20.453433526420373,0.4136641310481008,0.012242630522167931,10.905508185411172,0.6027351928856778
34.0,20.457204857298592,0.4138515037326282,0.012238709837081314,10.90499165263663,0.6027467801305384
35.0,20.460976300234815,0.4140389195317194,0.012234788805133671,10.9044750710766,0.6027582936492192
36.0,20.464747854834428,0.4142263783899886,0.01223086724814175,10.903958440769493,0.6027698831020407
37.0,20.46851952070661,0.4144138802525144,0.012226944823659625,10.903441761763364,0.6027815326553011
38.0,20.472291297460114,0.41460142506429243,0.012223022498249553,10.902925034101578,0.6027931884924037
39.0,20.476063184703257,0.41478901277023783,0.01221910048109204,10.90240825782632,0.6028047886483027
40.0,20.47983518204393,0.41497664331518463,0.012215178773097248,10.901891432979816,0.6028163151802245
41.0,20.483607289089584,0.41516431664387166,0.01221125737498492,10.901374559604335,0.6028277449822832
42.0,20.487379505447226,0.4153520327009736,0.01220733628731287,10.900857637742195,0.6028391431528975
43.0,20.49115183072343,0.4155397914310612,0.012203415510501216,10.900340667435765,0.6028505396500459
44.0,20.494924264524307,0.4157275927786348,0.012199495044852635,10.899823648727468,0.602862001173468
45.0,20.49869680645553,0.4159154366881024,0.012195574890569282,10.899306581659784,0.6028734193690836
46.0,20.50246945612232,0.4161033231037894,0.01219165504776664,10.898789466275256,0.6028849880087089
47.0,20.506242213129447,0.41629125196993755,0.012187735516485453,10.898272302616478,0.6028966893714298
48.0,20.51001507708124,0.4164792232307009,0.012183816201870324,10.897755090721798,0.6029085414349894
49.0,20.513788047581535,0.4166672368301487,0.012179897052617489,10.897237830627446,0.6029202626128821
50.0,20.51756112423375,0.4168552927122686,0.012175978204782533,10.89672052237623,0.6029317942160615
51.0,20.52133430664083,0.4170433908209574,0.012172059658417722,10.89620316601102,0.6029427649652196
52.0,20.525107594405256,0.4172315311000318,0.012168141359570218,10.895685761575056,0.6029536100923764
53.0,20.52888098712906,0.4174197134932179,0.012164223262238613,10.895168309111867,0.6029646352700112
54.0,20.532654484413833,0.41760793794416146,0.012160305463592348,10.894650808664498,0.6029759322648389
55.0,20.53642808586067,0.4177962043964221,0.012156387963692571,10.894133260276071,0.6029874891164413
56.0,20.54020179107023,0.4179845127934661,0.012152470762583713,10.893615663989774,0.6029987324270568
57.0,20.543975599642714,0.4181728630786868,0.01214855386029578,10.893098019848864,0.6030096522561658
58.0,20.547749511177848,0.4183612551953832,0.012144637256846226,10.89258032789667,0.6030203981040404
59.0,20.551523525274924,0.4185496890867702,0.012140720952241618,10.892062588176593,0.6030310661558996
60.0,20.555297641532743,0.41873816469597863,0.012136804946479307,10.891544800732104,0.6030416429275628
61.0,20.559071859549668,0.4189266819660576,0.01213288923954869,10.891026965606745,0.6030522548599243
62.0,20.562846178923596,0.4191152408399618,0.012128973831432379,10.89050908284413,0.6030633173203017
63.0,20.566620599251948,0.41930384126056763,0.01212505872210725,10.889991152487946,0.6030743589909614
64.0,20.5703951201317,0.4194924831706624,0.012121143911545363,10.889473174581953,0.6030854195248828
65.0,20.574169741159363,0.4196811665129479,0.012117229267871595,10.888955149171704,0.6030966923606061
66.0,20.57794446193099,0.41986989123004465,0.012113314899850685,10.888437076301386,0.6031081909973754
67.0,20.581719282042158,0.42005865726448527,0.012109400834201875,10.88791895601491,0.6031197519618611
68.0,20.585494201088004,0.4202474645587168,0.01210548707100119,10.887400788356258,0.6031313595421812
69.0,20.589269218663183,0.4204363130550955,0.012101573610319164,10.886882573369483,0.6031431044112466
70.0,20.593044334361906,0.4206252026959045,0.012097660452221186,10.886364311098712,0.6031548077089495
71.0,20.596819547777898,0.420814133423335,0.012093747596767668,10.885846001588146,0.6031665043433904
72.0,20.600594858504422,0.42100310517948186,0.012089835044014459,10.885327644882056,0.603178044728554
73.0,20.604370266134318,0.42119211790637384,0.01208592279401302,10.884809241024792,0.6031894206055092
74.0,20.608145770259902,0.4213811715459463,0.012082010846810778,10.88429079006077,0.6032005858751909
75.0,20.611921370473073,0.4215702660400443,0.012078099202451353,10.883772292034486,0.6032114887227794
76.0,20.61569706636524,0.4217594013304364,0.012074187860974632,10.883253746990505,0.603222303749396
77.0,20.61947285752735,0.42194857735879726,0.012070276822417077,10.882735154973465,0.6032332134689088
78.0,20.6232487435499,0.42213779406672175,0.012066366086811659,10.882216516028084,0.603244716911167
79.0,20.627024724022903,0.42232705139572224,0.012062455654188257,10.881697830199146,0.6032562206127232
80.0,20.630800798535933,0.4225163492872183,0.01205854552457344,10.881179097531513,0.6032676656148624
81.0,20.63457696667806,0.4227056876825485,0.012054635697990732,10.88066031807012,0.6032791300706745
82.0,20.638353228037936,0.4228950665229676,0.01205072617446063,10.880141491859977,0.6032904682963847
83.0,20.642129582203705,0.4230844857496439,0.01204681695400062,10.879622618946165,0.60330161863619
84.0,20.645906028763076,0.4232739453036595,0.01204290803662524,10.879103699373843,0.6033126297977912
85.0,20.649682567303262,0.4234634451260111,0.01203899942234617,10.878584733188239,0.6033234881391855
86.0,20.65345919741105,0.42365298515761535,0.012035091111172066,10.878065720434662,0.603334379987391
87.0,20.657235918672725,0.42384256533929804,0.012031183103108821,10.87754666115849,0.6033451811378613
88.0,20.661012730674134,0.42403218561180167,0.012027275398159377,10.877027555405176,0.6033559547082568
89.0,20.66478963300063,0.4242218459157859,0.012023367996323916,10.876508403220251,0.6033667814309681
90.0,20.668566625237105,0.4244115461918267,0.012019460897599655,10.875989204649315,0.6033774990596111
91.0,20.672343706968018,0.4246012863804063,0.012015554101981006,10.875469959738044,0.6033884279115538
92.0,20.67612087777732,0.42479106642193454,0.012011647609459521,10.874950668532195,0.6033991728363384
93.0,20.679898137248507,0.4249808862567291,0.012007741420023975,10.87443133107759,0.6034098213776146
94.0,20.68367548496463,0.4251707458250222,0.012003835533660166,10.873911947420131,0.6034203640119218
95.0,20.687452920508242,0.4253606450669673,0.011999929950351195,10.873392517605794,0.6034308676316292
96.0,20.69123044346144,0.4255505839226222,0.011996024670077187,10.872873041680629,0.6034412658252137
97.0,20.695008053405868,0.42574056233197455,0.011992119692815547,10.872353519690762,0.6034514582228797
98.0,20.698785749922678,0.42593058023491664,0.011988215018540797,10.871833951682392,0.6034613957925045
99.0,20.702563532592567,0.42612063757126256,0.011984310647224652,10.871314337701795,0.6034710074504914
100.0,20.70634140099577,0.42631073428073557,0.011980406578836051,10.87079467779532,0.6034804476724139
101.0,20.710119354712045,0.4265008703029789,0.011976502813341082,10.870274972009394,0.6034904217228498
102.0,20.713897393320686,0.42669104557755083,0.011972599345264094,10.869755220390566,0.6035017742299567
103.0,20.71767551640051,0.4268812600439247,0.011968696166829051,10.8692354229855,0.6035136701792879
104.0,20.721453723529887,0.42707151364148904,0.01196479327804967,10.868715579840941,0.6035224739633688
105.0,20.725232014286693,0.42726180630954663,0.01196089067895091,10.868195691003702,0.6035314343953947
106.0,20.729010388248348,0.42745213798732157,0.011956988369568907,10.867675756520669,0.6035409774294888
107.0,20.732788844991813,0.42764250861394465,0.011953086349950856,10.867155776438805,0.6035511752701522
108.0,20.736567384093565,0.42783291812847163,0.011949184620155014,10.866635750805148,0.6035618196505906
109.0,20.740346005129613,0.4280233664698723,0.01194528318025061,10.86611567966681,0.6035726772499187
110.0,20.744124707675514,0.42821385357702163,0.011941382030317658,10.865595563070976,0.6035835519846079
111.0,20.747903491306324,0.4284043793887271,0.011937481170446997,10.865075401064905,0.603594449993205
112.0,20.751682355596675,0.4285949438436997,0.01193358060074,10.864555193695931,0.6036033525142435
113.0,20.755461300120686,0.42878554688056875,0.011929680321308577,10.864034941011464,0.6036152861390857
114.0,20.759240324452037,0.42897618843788904,0.011925780332275015,10.863514643058986,0.6036263142597452
115.0,20.763019428163915,0.4291668684541127,0.011921880633771757,10.862994299886056,0.6036372485375522
116.0,20.766798610829056,0.4293575868676284,0.011917981225941393,10.862473911540304,0.6036479624537121
117.0,20.770577872019725,0.4295483436167278,0.011914082108936316,10.86195347806944,0.6036585627103613
118.0,20.774357211307695,0.42973913863962077,0.011910183282918702,10.861432999521243,0.6036691718357108
119.0,20.7781366282643,0.42992997187443877,0.011906284748060247,10.860912475943572,0.6036796628617144
120.0,20.781916122460395,0.4301208432592217,0.01190238650454201,10.860391907384352,0.6036900958319891
121.0,20.785695693466344,0.4303117527319337,0.011898488552554185,10.859871293891597,0.6037005326856848
122.0,20.789475340852064,0.4305027002304462,0.01189459089229597,10.859350635513382,0.6037090904259713
123.0,20.793255064187,0.43069368569255656,0.011890693523975147,10.858829932297864,0.6037200639568784
124.0,20.797034863040107,0.4308847090559739,0.011886796447173473,10.858309184293281,0.6037304752585947
125.0,20.80081473697989,0.43107577025832455,0.011882899658995614,10.857788391547977,0.6037407887454497
126.0,20.80459468557438,0.4312668692371462,0.011879003159783767,10.857267554110372,0.6037511370245181
127.0,20.808374708391128,0.4314580059299007,0.011875106949893745,10.856746672028962,0.6037615319480691
128.0,20.812154804997224,0.4316491802739635,0.011871211029694477,10.856225745352313,0.6037722692278644
129.0,20.815934974959276,0.4318403922066263,0.011867315399567311,10.855704774129071,0.6037833070724183
130.0,20.819715217843438,0.4320316416650985,0.011863420059905625,10.85518375840795,0.6037943454351533
131.0,20.823495533215382,0.4322229285865043,0.011859525011114057,10.854662698237746,0.6038056047637114
132.0,20.827275920640297,0.4324142529078887,0.011855630253607884,10.854141593667324,0.60381705623323
133.0,20.831056379682927,0.43260561456620855,0.011851735787812429,10.853620444745626,0.6038285274315802
134.0,20.834836909907523,0.43279701349833805,0.011847841614162274,10.853099251521671,0.6038398574829108
135.0,20.838617510877878,0.43298844964107225,0.011843947733100747,10.852578014044548,0.603851112659544
136.0,20.8423981821573,0.4331799229311222,0.011840054128472468,10.852056732362431,0.6038625234945524
137.0,20.846178923308646,0.4333714333051113,0.011836160797873616,10.851535406523464,0.6038740098056355
138.0,20.84995973389427,0.4335629806995853,0.011832267759961306,10.851014036576972,0.6038857030220163
139.0,20.85374061347608,0.43375456505100757,0.01182837501523842,10.850492622572355,0.6038974329422444
140.0,20.857521561615503,0.43394618629575304,0.011824482564213597,10.84997116455909,0.6039091256133836
141.0,20.861302577873488,0.4341378443701165,0.011820590407400472,10.849449662586732,0.6039207535926459
142.0,20.86508366181052,0.4343295392103113,0.011816698545317023,10.848928116704904,0.6039323501233776
143.0,20.86886481298661,0.43452127075247127,0.01181280695940579,10.84840652696279,0.6039439023873617
144.0,20.8726460309613,0.4347130389326388,0.011808915651775725,10.847884893409713,0.6039553991191625
145.0,20.876427315293647,0.4349048436867781,0.011805024629618027,10.847363216095022,0.6039667924926426
146.0,20.880208665542245,0.43509668495077697,0.011801133873028957,10.846841495067105,0.603978323212153
147.0,20.883990081265217,0.43528856266042854,0.011797243390052205,10.84631973037531,0.6039897807386516
148.0,20.8877715620202,0.43548047675145246,0.011793353185885624,10.845797922069226,0.6040010485362688
149.0,20.89155310736437,0.4356724271594863,0.011789463247061448,10.845276070197405,0.6040120533015813
150.0,20.89533471685443,0.4358644138200762,0.011785573590176636,10.84475417480946,0.6040237087557275
151.0,20.899116390046597,0.43605643666869826,0.011781684226570487,10.844232235955701,0.6040355183775765
152.0,20.902898126496623,0.4362484956407366,0.011777795156903728,10.843710253686522,0.6040474705791002
153.0,20.906679925759796,0.4364405906715012,0.011773906381836643,10.843188228052393,0.6040600729923368
154.0,20.910461787390908,0.43663272169621253,0.011770017902028187,10.842666159103858,0.6040726213242519
155.0,20.914243710944305,0.4368248886500106,0.011766129718135244,10.842144046891544,0.6040838390493526
156.0,20.91802569597384,0.4370170914679586,0.011762241830811794,10.841621891466152,0.6040944614033636
157.0,20.921807742032904,0.4372093300850319,0.011758354240708065,10.84109969287846,0.6041050430374506
158.0,20.92558984867441,0.4374016044361264,0.011754466948469844,10.840577451179326,0.6041155203918198
159.0,20.9293720154508,0.43759391445605716,0.011750579954737574,10.840055166419685,0.6041260040849893
160.0,20.93315424191404,0.4377862600795532,0.011746693260145536,10.839532838650548,0.6041362790777961
161.0,20.936936527615625,0.43797864124127167,0.011742806865321177,10.839010467923007,0.6041465256306398
162.0,20.940718872106586,0.43817105787577443,0.011738920741828725,10.838488054286394,0.604157395753974
163.0,20.94450127493746,0.4383635099175501,0.0117350349126894,10.837965597791566,0.6041681265134912
164.0,20.94828373565832,0.43855599730100686,0.011731149385077714,10.837443098489867,0.6041786813324352
165.0,20.95206625381877,0.43874851996046366,0.011727264159616165,10.836920556432725,0.6041890410121741
166.0,20.95584882896793,0.43894107783016656,0.011723379218663284,10.836397971671467,0.604199165649055
167.0,20.959631460654457,0.4391336708442801,0.011719494564630518,10.835875344257527,0.6042091302287838
168.0,20.963414148426534,0.43932629893687647,0.011715610214369133,10.835352674242568,0.6042188825484632
169.0,20.96719689183187,0.439518962041959,0.011711726162664977,10.834829961678325,0.6042289838826177
170.0,20.970979690417686,0.43971166009344514,0.011707842414404116,10.834307206616625,0.6042390287065912
171.0,20.97476254373076,0.4399043930251701,0.011703958970871231,10.833784409109368,0.6042491910094941
172.0,20.97854545131737,0.44009716077089117,0.011700075831123816,10.833261569208542,0.6042597087555174
173.0,20.98232841272333,0.44028996326427844,0.011696192994987316,10.83273868696621,0.6042710309316214
174.0,20.986111427493984,0.44048280043892846,0.011692310463187134,10.83221576243451,0.6042819856020127
175.0,20.9898944951742,0.44067567222835197,0.011688428236435993,10.831692795665669,0.6042925773544799
176.0,20.993677615308375,0.4408685785659822,0.011684546315432882,10.83116978671198,0.6043030340178962
177.0,20.997460787440417,0.44106151938516835,0.011680664678152347,10.830646735625173,0.6043132940689936
178.0,21.00124401111378,0.4412544946191783,0.011676783339132605,10.830123642457453,0.6043236094778243
179.0,21.00502728587143,0.44144750420120626,0.01167290230844042,10.82960050726138,0.604333931703012
180.0,21.008810611255875,0.4416405480643557,0.011669021586748696,10.829077330089591,0.604344159342293
181.0,21.012593986809126,0.4418336261416613,0.011665141174712861,10.8285541109948,0.6043542760827809
182.0,21.01637741207275,0.44202673836606593,0.011661261060195785,10.82803085002946,0.6043638650968829
183.0,21.020160886587817,0.44221988467043777,0.011657381245446597,10.827507547246148,0.6043720469414702
184.0,21.023944409894924,0.4424130649875655,0.011653501742577605,10.82698420269782,0.604382331832802
185.0,21.02772798153421,0.44260627925015433,0.011649622552180858,10.826460816437516,0.6043921003741898
186.0,21.031511601045327,0.4427995273908334,0.011645743674827985,10.825937388518355,0.6044014778392278
187.0,21.035295267967456,0.44299280934214647,0.011641865111069691,10.825413918993531,0.6044127235982454
188.0,21.03907898183931,0.44318612503656113,0.01163798686143562,10.824890407916325,0.6044242344314728
189.0,21.042862742199123,0.4433794744064663,0.011634108926433953,10.82436685534009,0.6044355163030697
190.0,21.046646548584654,0.4435728573841631,0.011630231306551452,10.823843261318261,0.6044466321869585
191.0,21.05043040053319,0.4437662739018813,0.011626354002253089,10.823319625904357,0.60445767770925
192.0,21.054214297581552,0.4439597238917683,0.011622477013982245,10.822795949151967,0.6044683853628627
193.0,21.05799823926607,0.444153207285892,0.01161860034216046,10.822272231114768,0.6044787064992497
