k,PSNR,SSIM,mse,Log-Gradient,Angle
0.0,20.329673203431856,0.40753808838482314,0.0,10.92244277547202,0.6016404955134683
1.0,20.332843511471147,0.4076929882276333,0.010212489639849635,10.92200697562596,0.6023489543366957
2.0,20.336582940823472,0.4078774278065744,0.012224046909105491,10.921495765462238,0.6023612728329814
3.0,20.340347907329573,0.4080632879672798,0.012341460706482465,10.920981164621113,0.6023717633749938
4.0,20.34411507198582,0.4082493078186187,0.012351104104914395,10.92046622219309,0.6023857202414854
5.0,20.34788261172139,0.4084353869107649,0.012349715151996234,10.919951187917395,0.6023992253418383
6.0,20.351650290907074,0.40862151219833254,0.012346495984446145,10.919436096795906,0.602413922733967
7.0,20.35541805734608,0.40880768062420486,0.012342760743893462,10.918920957616164,0.6024274449951339
8.0,20.35918589769521,0.40899389134495756,0.012338836919518497,10.918405773317176,0.6024403219763609
9.0,20.36295380717931,0.4091801440100437,0.012334838025965363,10.917890545144266,0.6024528351089642
10.0,20.366721784214036,0.4093664384864164,0.012330808304979315,10.917375273656717,0.6024650528610204
11.0,20.370489828008207,0.4095527746836283,0.012326765232138368,10.916859959175024,0.6024771118881228
12.0,20.37425793777097,0.40973915252258547,0.012322705167528458,10.916344601965612,0.6024890013798562
13.0,20.37802611293939,0.4099255719354205,0.01231863644755381,10.915829202219669,0.6025007586865773
14.0,20.381794352855515,0.4101120328499643,0.01231455639549362,10.915313760145263,0.6025124053736688
15.0,20.385562656999163,0.4102985351992045,0.012310470782905786,10.914798275849693,0.6025240005093978
16.0,20.389331024945683,0.41048507892468983,0.012306381403100582,10.914282749455005,0.6025355245186648
17.0,20.393099456276744,0.4106716639686077,0.012302291699471347,10.91376718102775,0.6025472224742964
18.0,20.39686795057839,0.41085829027357423,0.012298198209241802,10.91325157064768,0.6025588221496988
19.0,20.40063650743971,0.41104495778249683,0.012294105260788432,10.912735918373833,0.6025704104536289
20.0,20.404405126451934,0.41123166643848136,0.012290012955199426,10.912220224261809,0.6025820014125047
21.0,20.408173807207696,0.4114184161847451,0.012285917575131753,10.911704488372045,0.6025937326629676
22.0,20.411942549300598,0.4116052069645781,0.012281820204689285,10.911188710764547,0.6026056273813237
23.0,20.415711352324823,0.4117920387213019,0.01227772326201171,10.910672891490167,0.6026175693753945
24.0,20.419480215874948,0.41197891139824233,0.012273625063021546,10.910157030602555,0.602629528802212
25.0,20.42324913954571,0.41216582493871234,0.012269527163830144,10.909641128151755,0.6026413968382727
26.0,20.4270181229319,0.41235277928598607,0.012265427268412302,10.909125184214929,0.6026531298286059
27.0,20.430787165628264,0.41253977438330214,0.012261326291106675,10.908609198843541,0.6026648512154479
28.0,20.43455626722939,0.4127268101738469,0.012257225513911079,10.908093172087126,0.6026765863487188
29.0,20.438325427329698,0.41291388660074896,0.01225312520585763,10.907577103992779,0.6026883675690743
30.0,20.44209464552333,0.4131010036070754,0.012249025371094697,10.907060994607452,0.6027001374198996
31.0,20.445863921404154,0.41328816113582295,0.012244926012253117,10.906544843978002,0.6027118605957583
32.0,20.44963325456573,0.4134753591299282,0.01224082713075248,10.906028652151212,0.6027235188334518
33.0,20.45340264460128,0.4136625975322443,0.012236728454270557,10.905512419171618,0.6027350977145733
34.0,20.457172091103676,0.41384987628555653,0.012232629814395617,10.90499614508263,0.6027466790857372
35.0,20.460941593660458,0.41403719533192773,0.012228530946143002,10.904479829929345,0.602758187148407
36.0,20.464711151859785,0.4142245546134644,0.012224431671426315,10.90396347375453,0.6027697686633583
37.0,20.468480765293613,0.4144119540727507,0.012220331647317218,10.903447076610597,0.6027814120122857
38.0,20.472250433553523,0.4145993936522904,0.01221623184160365,10.902930638545259,0.6027930611017959
39.0,20.47602015623069,0.41478687329451797,0.012212132462985617,10.902414159605051,0.6028046556123833
40.0,20.479789932915907,0.4149743929417807,0.012208033512389563,10.901897639836543,0.6028161759335208
41.0,20.483559763199544,0.4151619525363462,0.012203934990551585,10.901381079286349,0.6028275999385899
42.0,20.48732964667159,0.41534955202040713,0.012199836898045782,10.900864478001127,0.6028389904879973
43.0,20.491099582921606,0.4155371913360761,0.012195739235308655,10.900347836027587,0.6028503787281044
44.0,20.49486957153875,0.4157248704253869,0.012191642002659273,10.899831153412485,0.6028618334938295
45.0,20.498639612111774,0.4159125892302901,0.01218754520031627,10.899314430202637,0.6028732436108701
46.0,20.502409704229013,0.41610034769265564,0.01218344882841173,10.898797666444914,0.6028848005064983
47.0,20.506179847478375,0.4162881457542799,0.012179352887002894,10.898280862186244,0.602896492341778
48.0,20.509950041447365,0.41647598335686936,0.01217525728135271,10.897764017469305,0.6029083355368647
49.0,20.51372028572306,0.41666386044205383,0.012171161959793285,10.897247132334645,0.6029200512645047
50.0,20.517490579892122,0.41685177695138886,0.012167067058673282,10.896730206829389,0.6029315808250805
51.0,20.521260923540794,0.4170397328263428,0.012162972578061915,10.89621324100073,0.6029425531890286
52.0,20.525031316254882,0.4172277280083041,0.012158878463976622,10.89569623489622,0.6029533849836212
53.0,20.528801757619796,0.4174157624385773,0.012154784670439968,10.895179188563706,0.6029643991298169
54.0,20.53257224722051,0.4176038360584018,0.012150691294677525,10.894662102050539,0.6029756725250576
55.0,20.536342784641583,0.41779194880891124,0.012146598336767575,10.894144975404153,0.6029872286445556
56.0,20.540113369467143,0.41798010063118207,0.012142505796771917,10.893627808672035,0.6029984696402421
57.0,20.5438840012809,0.41816829146620166,0.01213841367473789,10.893110601901748,0.6030093864579458
58.0,20.54765467966615,0.41835652125486816,0.012134321970700284,10.892593355140923,0.603020125687093
59.0,20.551425404205755,0.4185447899380095,0.012130230684683224,10.892076068437252,0.6030307864838097
60.0,20.55519617448215,0.41873309745637366,0.012126139816701636,10.891558741838505,0.6030413553386752
61.0,20.558966990077376,0.41892144375062523,0.0121220493667625,10.891041375392513,0.6030519491242957
62.0,20.562737850573,0.41910982876134134,0.012117959334866136,10.89052396914718,0.6030629945440658
63.0,20.566508755550224,0.41929825242902535,0.012113869721007175,10.89000652315048,0.6030740303184011
64.0,20.57027970458978,0.4194867146941072,0.01210978052517548,10.889489037450453,0.6030850701488141
65.0,20.574050697271993,0.419675215496923,0.012105691614071311,10.888971512096953,0.6030963324811397
66.0,20.57782173317677,0.41986375477773663,0.012101603099233822,10.888453947138425,0.6031078107031901
67.0,20.581592811883592,0.4200523324767305,0.012097515006085966,10.887936342623057,0.6031193575206933
68.0,20.585363932971518,0.4202409485340008,0.0120934273347218,10.887418698599099,0.6031309519722033
69.0,20.58913509601918,0.42042960288957015,0.012089340085230044,10.886901015114876,0.6031426811435749
70.0,20.592906300604778,0.4206182954833819,0.012085253257694299,10.886383292218781,0.6031543693397609
71.0,20.5966775463061,0.42080702625529304,0.012081166852193289,10.885865529959277,0.6031660611511412
72.0,20.6004488327005,0.42099579514508445,0.01207708086880119,10.885347728384899,0.6031775940444359
73.0,20.604220159364914,0.4211846020924535,0.01207299530758799,10.884829887544246,0.6031889658786015
74.0,20.60799152587584,0.42137344703702206,0.012068910168619587,10.884312007485997,0.6032001280135758
75.0,20.611762931809366,0.4215623299183276,0.012064825451958125,10.883794088258893,0.603211026736077
76.0,20.615534376741145,0.4217512506758296,0.012060741157662227,10.883276129911751,0.6032218318519662
77.0,20.619305860246413,0.42194020924890935,0.012056657285787026,10.882758132493455,0.6032327221537582
78.0,20.623077381899975,0.42212920557686134,0.012052573836384377,10.882240096052962,0.6032441820730775
79.0,20.626848941276208,0.42231823959891074,0.012048490809503,10.881722020639298,0.6032556795604167
80.0,20.630620537949063,0.42250731125419133,0.012044408205188444,10.881203906301561,0.6032671048787807
81.0,20.634392171492074,0.4226964204817641,0.012040326023483212,10.880685753088919,0.6032785630589351
82.0,20.638163841478338,0.42288556722061105,0.01203624426442695,10.88016756105061,0.603289894183056
83.0,20.641935547480543,0.4230747514096294,0.0120321629280563,10.879649330235946,0.6033010393826256
84.0,20.645707289070927,0.4232639729876393,0.012028082014405094,10.879131060694307,0.603312044148505
85.0,20.64947906582132,0.4234532318933774,0.012024001523504278,10.878612752475147,0.6033228922867925
86.0,20.65325087730313,0.42364252806551167,0.012019921455381947,10.878094405627987,0.6033337710619168
87.0,20.65702272308732,0.42383186144262047,0.012015841810063455,10.877576020202422,0.6033445639641986
88.0,20.660794602744442,0.42402123196319946,0.012011762587571386,10.87705759624812,0.6033553143040908
89.0,20.664566515844616,0.4242106395656788,0.012007683787925416,10.876539133814813,0.6033661331531511
90.0,20.66833846195754,0.4244000841883951,0.01200360541114251,10.876020632952311,0.6033768310617922
91.0,20.672110440652474,0.4245895657696131,0.011999527457236892,10.875502093710496,0.6033877443405172
92.0,20.675882451498268,0.42477908424751964,0.011995449926220002,10.874983516139316,0.6033984872473527
93.0,20.679654494063342,0.42496863956021175,0.011991372818100414,10.874464900288793,0.603409122976697
94.0,20.68342656791568,0.4251582316457207,0.011987296132884104,10.873946246209021,0.6034196601729969
95.0,20.68719867262285,0.4253478604419869,0.01198321987057407,10.873427553950163,0.6034301486842071
96.0,20.690970807751988,0.4255375258868816,0.011979144031170742,10.872908823562458,0.6034405433967622
97.0,20.694742972869797,0.42572722791819323,0.011975068614671703,10.872390055096213,0.603450736798049
98.0,20.698515167542574,0.42591696647362304,0.011970993621071775,10.871871248601808,0.6034606805439754
99.0,20.702287391336178,0.4261067414908044,0.011966919050363034,10.871352404129693,0.6034703038623658
100.0,20.706059643816026,0.42629655290728957,0.011962844902534927,10.87083352173039,0.603479722235435
101.0,20.70983192454713,0.4264864006605467,0.011958771177574035,10.870314601454494,0.6034895933422347
102.0,20.71360423309407,0.4266762846879668,0.011954697870707428,10.869795643352719,0.6035008154373094
103.0,20.717376569021,0.4268662049268664,0.011950624973507677,10.86927664747589,0.6035128349580842
104.0,20.721148931891644,0.42705616131447854,0.011946552486008937,10.868757613874909,0.6035217681724564
105.0,20.724921321269292,0.4272461537879604,0.011942480408256658,10.868238542600746,0.6035306578466159
106.0,20.72869373671683,0.42743618228438934,0.011938408740307462,10.86771943370444,0.6035401406859455
107.0,20.732466177796695,0.42762624674076294,0.01193433748222917,10.867200287237104,0.6035502544027925
108.0,20.7362386440709,0.42781634709400246,0.011930266634100718,10.86668110324992,0.6035608656922348
109.0,20.740011135101053,0.4280064832809458,0.011926196196012,10.866161881794142,0.6035716945178587
110.0,20.7437836504483,0.42819665523836176,0.011922126168063877,10.865642622921092,0.6035825456879506
111.0,20.747556189673404,0.4283868629029304,0.01191805655036798,10.865123326682166,0.6035934394983139
112.0,20.75132875233665,0.4285771062112611,0.011913987343046613,10.864603993128831,0.6036026888650097
113.0,20.75510133799794,0.4287673850998806,0.011909918546232696,10.864084622312623,0.6036141621964747
114.0,20.75887394621673,0.4289576995052368,0.011905850160069504,10.863565214285147,0.6036252302236569
115.0,20.762646576552047,0.42914804936370254,0.011901782184710587,10.863045769098084,0.6036361564556102
116.0,20.7664192285625,0.42933843461157367,0.011897714620319645,10.862526286803185,0.6036468692491125
117.0,20.770191901806264,0.42952885518506,0.011893647467070358,10.862006767452268,0.6036574567307511
118.0,20.773964595841086,0.4297193110203041,0.011889580725146155,10.861487211097227,0.6036680484226079
119.0,20.777737310224303,0.4299098020533616,0.011885514394740063,10.860967617790022,0.603678536102133
120.0,20.781510044512803,0.43010032822021715,0.011881448476054542,10.860447987582688,0.6036889453451231
121.0,20.785282798263054,0.43029088945677074,0.011877382969301273,10.859928320527331,0.6036994197932809
122.0,20.78905557103111,0.4304814856988519,0.011873317874700922,10.859408616676127,0.6037077153959515
123.0,20.79282836237258,0.43067211688220325,0.01186925319248291,10.858888876081322,0.6037188394871605
124.0,20.79660117184265,0.43086278294249986,0.011865188922611257,10.85836909879524,0.6037292630982926
125.0,20.80037399899609,0.43105348381533265,0.011861125061849132,10.857849284870309,0.603739552453295
126.0,20.80414684338723,0.4312442194362145,0.011857061610559846,10.857329434359029,0.6037498863083988
127.0,20.80791970456998,0.4314349897405864,0.011852998569120421,10.856809547313972,0.6037602457721821
128.0,20.811692582097827,0.43162579466380596,0.011848935937920971,10.85628962378778,0.6037709249727718
129.0,20.815465475523816,0.4318166341411598,0.01184487371736425,10.855769663833168,0.6037818994537191
130.0,20.819238384400588,0.43200750810784605,0.011840811907864943,10.855249667502916,0.603792902748282
131.0,20.82301130828033,0.43219841649899865,0.011836750509849135,10.854729634849878,0.6038041183366933
132.0,20.82678424671483,0.4323893592496697,0.01183268952375366,10.854209565926983,0.603815512680501
133.0,20.830557199255427,0.43258033629482745,0.011828628950025354,10.853689460787225,0.60382698050264
134.0,20.834330165453036,0.43277134756937,0.011824568789120585,10.85316931948367,0.6038383052014793
135.0,20.838103144858167,0.4329623930081203,0.011820509041504291,10.852649142069456,0.6038495189898981
136.0,20.841876137020865,0.43315347254581615,0.011816449693053867,10.852128928596924,0.6038609045064306
137.0,20.845649141490796,0.43334458611712856,0.01181239073731497,10.851608679118135,0.6038723589791398
138.0,20.849422157817145,0.43353573365664294,0.011808332195029211,10.851088393686448,0.6038840002589342
139.0,20.853195185548707,0.4337269150988712,0.011804274066721493,10.850568072355296,0.6038956980183229
140.0,20.85696822423384,0.4339181303782526,0.011800216352922633,10.850047715178182,0.6039073763557957
141.0,20.860741273420466,0.43410937942913846,0.011796159054168554,10.84952732220868,0.6039189837978519
142.0,20.864514332656093,0.4343006621858181,0.011792102170999493,10.84900689350044,0.6039305577918986
143.0,20.8682874014878,0.43449197858249616,0.011788045687167256,10.848486429106718,0.6039420893538486
144.0,20.87206047946224,0.4346833285532988,0.011783989600181049,10.84796592908079,0.6039535735298146
145.0,20.87583356612562,0.4348747120322805,0.011779933922527854,10.84744539347616,0.603964948164826
146.0,20.879606661023754,0.43506612895341873,0.011775878628417672,10.846924822345073,0.6039764370727853
147.0,20.88337976370199,0.43525757925061287,0.011771823731896931,10.84640421574097,0.6039878921783529
148.0,20.887152873705276,0.4354490628576877,0.011767769232138812,10.84588357371734,0.6039991730074814
149.0,20.890925990578125,0.4356405797083884,0.011763715122359065,10.845362896326915,0.6040101992683696
150.0,20.894699113864625,0.4358321297363883,0.01175966141245692,10.844842183623111,0.604021634995003
151.0,20.898472243108422,0.4360237128752877,0.011755608116904308,10.844321435660229,0.6040334803885398
152.0,20.902245377852754,0.43621532905859844,0.01175155523638492,10.843800652492638,0.6040452870760499
153.0,20.906018517640423,0.436406978219773,0.011747502771581937,10.843279834174778,0.6040577751058956
154.0,20.90979166201381,0.43659866029217315,0.011743450723177309,10.842758980761172,0.6040704143355683
155.0,20.913564810514856,0.4367903752090962,0.011739399091850972,10.842238092306404,0.6040818547174823
156.0,20.9173379626851,0.436982122903755,0.01173534787828009,10.841717168865143,0.6040924722710491
157.0,20.921111118065628,0.4371739033092963,0.011731297083138116,10.841196210492125,0.6041030554482385
158.0,20.924884276197115,0.43736571635878035,0.011727246707094133,10.840675217242158,0.6041135045816441
159.0,20.928657436619815,0.43755756198520296,0.011723196750811876,10.840154189170127,0.6041239839882931
160.0,20.932430598873538,0.43774944012147454,0.011719147214949198,10.83963312633099,0.6041342769698035
161.0,20.936203762497687,0.4379413507004388,0.011715098100157022,10.839112028779777,0.6041444232241538
162.0,20.939976927031225,0.4381332936548576,0.011711049381845874,10.838590896570008,0.6041552024325502
163.0,20.94375009201269,0.43832526891742196,0.011707001075390628,10.838069729756223,0.6041659421777872
164.0,20.947523256980205,0.4385172764207496,0.011702953191837699,10.837548528393697,0.6041765124285213
165.0,20.95129642147144,0.43870931609737185,0.011698905731833442,10.83702729253778,0.6041868906679407
166.0,20.955069585023672,0.4389013878797605,0.011694858681807778,10.836506022243759,0.6041970368739714
167.0,20.958842747173733,0.4390934917003026,0.011690812036079686,10.83598471756694,0.6042070040006516
168.0,20.96261590745803,0.439285627491315,0.01168676581578193,10.8354633785629,0.6042167304681194
169.0,20.966389065412564,0.4394777951850357,0.01168272001709724,10.834942005287285,0.6042267794146854
170.0,20.97016222057288,0.43966999471362983,0.011678674641953825,10.834420597795814,0.6042367649347854
171.0,20.973935372474127,0.4398622260091917,0.011674629693066886,10.83389915614429,0.6042468965698178
172.0,20.977708520651003,0.4400544890037339,0.011670585169988652,10.833377680388587,0.6042572669439806
173.0,20.981481664637805,0.44024678362920255,0.011666541072086633,10.832856170584659,0.6042684399419334
174.0,20.98525480396839,0.440439109817463,0.01166249740010952,10.832334626788532,0.6042794763117482
175.0,20.989027938176186,0.44063146750030907,0.011658454154793378,10.831813049056306,0.6042901088718516
176.0,20.99280106679422,0.4408238566094614,0.011654411336860819,10.831291437444154,0.6043005521041735
177.0,20.99657418935506,0.44101627707656355,0.011650368929594592,10.830769792007827,0.6043108388664242
178.0,21.000347305390875,0.4412087288331901,0.0116463269369841,10.830248112803243,0.6043211122605949
179.0,21.004120414433395,0.4414012118108377,0.011642285374408123,10.829726399886823,0.6043313707317874
180.0,21.007893516013937,0.4415937259409277,0.011638244242563578,10.829204653315061,0.6043416022777742
181.0,21.011666609663383,0.44178627115480956,0.011634203542130094,10.828682873144526,0.6043517372370321
182.0,21.01543969491219,0.44197884738376264,0.011630163264773782,10.828161059431618,0.6043615237512804
183.0,21.0192127712904,0.44217145455899026,0.011626123405171397,10.827639212232654,0.6043699727732411
184.0,21.022985838327624,0.44236409261161486,0.011622083979277872,10.82711733160443,0.6043794559368862
185.0,21.026758895553055,0.44255676147269735,0.011618044987709951,10.826595417603821,0.6043899359945346
186.0,21.030531942495443,0.44274946107321683,0.01161400643106411,10.82607347028777,0.6043982879134767
187.0,21.03430497868314,0.44294219134408747,0.011609968309915987,10.825551489713302,0.6044097080889196
188.0,21.03807800364406,0.4431349522161387,0.011605930624820245,10.82502947593751,0.6044211001422561
189.0,21.04185101690569,0.4433277436201368,0.011601893376310263,10.824507429017565,0.6044324153416635
190.0,21.045624017995102,0.4435205654867678,0.01159785656489801,10.823985349010714,0.6044435179192645
191.0,21.049397006438934,0.4437134177466527,0.011593820191073904,10.823463235974277,0.60445457880345
192.0,21.053169981763418,0.44390630033033096,0.01158978425530673,10.822941089965646,0.6044653619507485
193.0,21.05694294349434,0.4440992131682761,0.011585748758043643,10.822418911042291,0.6044757601332461
