k,PSNR,SSIM,mse,Log-Gradient,Angle
0.0,20.498970338661678,0.6110212520035717,0.0,11.030948412321084,0.584873253862361
1.0,20.501981905492435,0.6111498191174878,0.010066901529166408,11.030589632479643,0.5876546647169424
2.0,20.505488951754653,0.6113023128098187,0.01184627642128851,11.030178394325505,0.587682117629941
3.0,20.5090188984301,0.61145599024132,0.011956215041636433,11.029764789551319,0.5876773756723853
4.0,20.512550321259184,0.611609750798138,0.011965027753418568,11.029351028339901,0.5876754320683932
5.0,20.516081402534752,0.6117634992209697,0.011962756545470176,11.028937301501658,0.5876789102902745
6.0,20.51961187842324,0.6119172217482189,0.011958387283082052,11.028523639557179,0.5876844294447907
7.0,20.523141695381856,0.612070915396249,0.011953443931937164,11.028110050166037,0.5876884786152711
8.0,20.5266708378095,0.6122245793533478,0.011948285886118848,11.027696536077555,0.5876923697542021
9.0,20.530199297409677,0.6123782131376073,0.011943031835852047,11.027283098553301,0.5876954995551925
10.0,20.533727069891192,0.6125318165081444,0.011937705457420582,11.026869738447623,0.5876984700604805
11.0,20.537254153996543,0.6126853893848195,0.011932352056911396,11.026456456195584,0.5877013433542517
12.0,20.5407805479471,0.6128389316690747,0.011926981649218361,11.02604325205,0.5877044522777743
13.0,20.544306250667365,0.6129924432932752,0.011921604125213604,11.025630126195734,0.5877077346859977
14.0,20.547831261211375,0.6131459241992716,0.011916219875119772,11.02521707887608,0.5877110134392016
15.0,20.55135557877941,0.6132993743328455,0.01191083175516954,11.024804110228484,0.5877142445099516
16.0,20.55487920248399,0.6134527936352423,0.011905442289538534,11.024391220354705,0.587717489734761
17.0,20.55840213141682,0.6136061820463863,0.011900052338009512,11.02397840934225,0.5877207682525355
18.0,20.561924364773937,0.6137595395129068,0.011894658298893582,11.023565677300782,0.5877241612739311
19.0,20.56544590178767,0.6139128659846523,0.01188926358210839,11.023153024330513,0.5877275405221168
20.0,20.568966741696165,0.6140661614113392,0.011883870597861397,11.022740450517444,0.5877309505432936
21.0,20.572486883741078,0.6142194257429748,0.011878476296307809,11.02232795594766,0.5877344022813328
22.0,20.576006327166642,0.6143726589297853,0.011873081221494892,11.021915540714582,0.5877378103745653
23.0,20.57952507121906,0.6145258609221725,0.011867687761740488,11.021503204901324,0.5877411956457482
24.0,20.583043115146005,0.6146790316706684,0.011862295008024404,11.021090948596656,0.5877445359682346
25.0,20.586560458196264,0.6148321711259204,0.011856903386249234,11.02067877187672,0.5877477931057092
26.0,20.590077099619478,0.6149852792386606,0.011851511447585719,11.020266674827038,0.5877509483076452
27.0,20.593593038665933,0.6151383559596972,0.011846117776105117,11.019854657540863,0.5877540704429457
28.0,20.59710827458648,0.6152914012399028,0.011840725539454257,11.01944272009582,0.5877571742164377
29.0,20.600622806632323,0.615444415030201,0.011835334628178618,11.019030862565877,0.5877603026675698
30.0,20.604136634054985,0.6155973972815665,0.011829945290239658,11.018619085029188,0.5877633930415177
31.0,20.6076497561062,0.6157503479450149,0.01182455752867977,11.018207387563713,0.5877664022366362
32.0,20.6111621720379,0.6159032669716017,0.011819171345186025,11.017795770247265,0.5877693419388448
33.0,20.614673881102167,0.6160561543124172,0.01181378652206544,11.017384233156363,0.5877723425664768
34.0,20.618184882551166,0.6162090099185829,0.011808402726032032,11.016972776373061,0.5877752751626776
35.0,20.62169517563715,0.6163618337412554,0.011803020304677624,11.01656139997505,0.5877781288378755
36.0,20.625204759612433,0.6165146257316189,0.011797637814851259,11.016150104042513,0.5877809608902218
37.0,20.628713633729383,0.6166673858408817,0.01179225543601785,11.015738888651954,0.5877837619196855
38.0,20.63222179724039,0.6168201140202859,0.0117868742390466,11.015327753881209,0.5877864865502104
39.0,20.635729249397855,0.6169728102210968,0.011781494565762888,11.014916699807172,0.5877891575251127
40.0,20.63923598945419,0.6171254743946065,0.01177611641722724,11.014505726506682,0.5877918103934845
41.0,20.64274201666183,0.6172781064921323,0.011770739794266074,11.014094834056527,0.5877944231223322
42.0,20.64624733027319,0.6174307064650134,0.011765364697505524,11.01368402253344,0.5877969895476702
43.0,20.649751929540678,0.6175832742646208,0.011759991127400388,11.013273292014114,0.5877995726591806
44.0,20.653255813716708,0.6177358098423406,0.01175461908425836,11.012862642575197,0.5878021652658295
45.0,20.656758982053663,0.6178883131495897,0.011749248568260503,11.012452074293293,0.587804723698024
46.0,20.660261433803917,0.6180407841378087,0.011743879579478235,11.01204158724497,0.5878072721531975
47.0,20.663763168219845,0.61819322275846,0.01173851195641103,11.01163118150506,0.5878098612002136
48.0,20.66726418455378,0.6183456289630271,0.011733145805223381,11.011220857149503,0.5878123887343799
49.0,20.67076448205804,0.6184980027030237,0.011727780932504884,11.01081061425451,0.5878149554241764
50.0,20.674264059984946,0.6186503439299833,0.011722417413644383,11.01040045289502,0.5878175044248662
51.0,20.677762917586758,0.6188026525954616,0.011717055339880884,11.009990373147241,0.5878199656900189
52.0,20.681261054115744,0.6189549286510431,0.011711694688155827,11.009580375087298,0.5878223922451894
53.0,20.684758468824146,0.6191071720483308,0.01170633555270616,11.009170458791491,0.5878249791603406
54.0,20.688255160964193,0.6192593827389549,0.011700977933820137,11.008760624336086,0.5878275957724695
55.0,20.691751129788084,0.6194115606745663,0.011695621831755846,11.00835087179732,0.5878301816978685
56.0,20.69524637454801,0.6195637058068412,0.011690267246744265,11.007941201251406,0.5878327954141114
57.0,20.69874089449613,0.6197158180874817,0.011684914178992364,11.007531612774523,0.5878356116289426
58.0,20.702234688884605,0.6198678974682106,0.011679562628685781,11.007122106442825,0.5878390918112809
59.0,20.705727756965572,0.6200199439007755,0.011674212595991322,11.006712682332436,0.5878425174591937
60.0,20.70922009799114,0.6201719573369486,0.011668864081058912,11.006303340519453,0.5878457630787012
61.0,20.712711711213426,0.6203239377285258,0.011663517084023632,11.005894081079948,0.5878488549049662
62.0,20.716202595884525,0.6204758850273276,0.01165817160500717,11.005484904089961,0.5878517746241895
63.0,20.71969275125651,0.6206277991851974,0.011652827644119287,11.00507580962551,0.5878545370807252
64.0,20.72318217658144,0.6207796801540048,0.011647485201458928,11.004666797762578,0.5878571693252621
65.0,20.72667087111139,0.6209315278856414,0.011642144277115437,11.004257868577131,0.5878600180592386
66.0,20.730158834098397,0.6210833423320236,0.011636804871169292,11.003849022145102,0.5878627979279771
67.0,20.7336460647945,0.6212351234450951,0.011631466983693108,11.003440258542398,0.5878654515480349
68.0,20.737132562451723,0.6213868711768207,0.011626130614752097,11.0030315778449,0.5878681029642311
69.0,20.740618326322092,0.6215385854791898,0.011620795764404883,11.00262298012846,0.587870724411168
70.0,20.74410335565763,0.6216902663042219,0.01161546243270391,11.002214465468908,0.5878731898290155
71.0,20.74758764971034,0.6218419136039525,0.011610130619695923,11.001806033942042,0.5878756330674032
72.0,20.751071207732235,0.6219935273304499,0.011604800325422295,11.001397685623635,0.587878102948855
73.0,20.754554028975317,0.622145107435805,0.011599471549919596,11.000989420589434,0.5878816779423723
74.0,20.758036112691585,0.622296653872128,0.011594144293219541,11.000581238915158,0.5878859478121643
75.0,20.761517458133053,0.6224481665915623,0.011588818555349547,11.0001731406765,0.587890155951376
76.0,20.76499806455172,0.6225996455462733,0.011583494336332765,10.999765125949125,0.587894230157821
77.0,20.768477931199595,0.6227510906884504,0.011578171636188302,10.99935719480867,0.5878983373044496
78.0,20.771957057328674,0.6229025019703104,0.011572850454931395,10.998949347330749,0.5879021964178271
79.0,20.775435442190986,0.6230538793440951,0.011567530792573475,10.998541583590944,0.5879058680723258
80.0,20.77891308503854,0.6232052227620696,0.011562212649122399,10.998133903664812,0.5879099323607174
81.0,20.78238998512336,0.6233565321765281,0.01155689602458232,10.99772630762788,0.5879141618019362
82.0,20.785866141697472,0.6235078075397873,0.011551580918953981,10.997318795555653,0.5879182361873213
83.0,20.789341554012925,0.6236590488041917,0.01154626733223459,10.996911367523602,0.5879219563159066
84.0,20.792816221321768,0.6238102559221124,0.011540955264417903,10.996504023607175,0.5879255079875098
85.0,20.79629014287606,0.6239614288459445,0.01153564470898392,10.99609676388178,0.5879297965793302
86.0,20.79976331792787,0.6241125675281077,0.011530335634584873,10.995689588422753,0.5879332067994205
87.0,20.80323574572929,0.6242636719210524,0.011525028082804955,10.995282497305451,0.5879398134320746
88.0,20.80670742553241,0.6244147419772507,0.011519722053546334,10.994875490605216,0.5879445280021863
89.0,20.810178356589354,0.6245657776492065,0.011514417546703454,10.994468568397348,0.5879488870785564
90.0,20.813648538152254,0.6247167788894431,0.011509114562163051,10.994061730757132,0.5879534604815767
91.0,20.817117969473262,0.6248677456505134,0.011503813099804165,10.99365497775982,0.5879582069233859
92.0,20.82058664980454,0.6250186778850014,0.011498513159498444,10.993248309480633,0.5879629847115426
93.0,20.824054578398282,0.6251695755455092,0.011493214741110067,10.992841725994767,0.5879676949218413
94.0,20.8275217545067,0.6253204385846715,0.011487917844495994,10.992435227377392,0.5879723106335081
95.0,20.830988177382025,0.6254712669551488,0.011482622469506132,10.992028813703646,0.5879768674134771
96.0,20.834453846276524,0.6256220606096278,0.011477328615983362,10.991622485048637,0.587981329976708
97.0,20.837918760442466,0.6257728195008209,0.011472036279171068,10.991216241487455,0.5879857447895686
98.0,20.84138291913217,0.6259235435814717,0.011466745454272894,10.990810083095162,0.5879901157068652
99.0,20.84484632159796,0.6260742328043463,0.011461456141152293,10.99040400994679,0.5879944992367486
100.0,20.848308967092212,0.6262248871222401,0.011456168339674472,10.989998022117344,0.5879989340764068
101.0,20.851770854867322,0.6263755064879767,0.011450882048923505,10.989592119681795,0.5880034116082127
102.0,20.855231984175706,0.6265260908544049,0.01144559726748752,10.989186302715074,0.5880079870386153
103.0,20.858692354269827,0.6266766401744037,0.01144031399536478,10.988780571292086,0.5880125582655427
104.0,20.862151964402177,0.6268271544008786,0.011435032232557811,10.988374925487705,0.5880170649725256
105.0,20.865610813825274,0.62697763348676,0.01142975197907331,10.987969365376768,0.5880214645764587
106.0,20.86906890179168,0.6271280773850102,0.011424473234922152,10.987563891034085,0.5880256789985875
107.0,20.872526227554,0.6272784860486177,0.011419196000119314,10.987158502534436,0.5880297862312811
108.0,20.875982790364866,0.6274288594305991,0.01141392027468384,10.986753199952563,0.5880337663343733
109.0,20.87943858947696,0.6275791974839963,0.011408646058638816,10.986347983363181,0.5880375707354565
110.0,20.882893624142977,0.6277295001618867,0.01140337335201135,10.985942852840973,0.5880413393979279
111.0,20.8863478936157,0.6278797674173661,0.011398102154832465,10.985537808460583,0.5880451735359565
112.0,20.889801397147902,0.628029999203568,0.011392832467137222,10.98513285029663,0.5880489302845248
113.0,20.89325413399245,0.6281801954736459,0.011387564288964569,10.984727978423695,0.5880527210459446
114.0,20.89670610340223,0.628330356180787,0.01138229762035734,10.98432319291633,0.588056610139724
115.0,20.90015730463017,0.628480481278206,0.011377032461362293,10.983918493849052,0.5880605457850082
116.0,20.903607736929256,0.6286305707191473,0.01137176881203008,10.983513881296343,0.5880645321702485
117.0,20.907057399552524,0.6287806244568802,0.01136650667241521,10.983109355332655,0.5880685919926866
118.0,20.91050629175306,0.6289306424447045,0.011361246042576096,10.982704916032402,0.5880725500753788
119.0,20.913954412783987,0.6290806246359537,0.011355986922575051,10.982300563469968,0.588076366110451
120.0,20.917401761898496,0.629230570983983,0.01135072931247831,10.9818962977197,0.5880800694939519
121.0,20.920848338349835,0.6293804814421807,0.011345473212356027,10.981492118855915,0.5880836323144977
122.0,20.924294141391293,0.6295303559639647,0.011340218622282312,10.981088026952886,0.5880874850460657
123.0,20.927739170276226,0.6296801945027778,0.011334965542335292,10.980684022084862,0.5880921128247629
124.0,20.93118342425804,0.629829997012097,0.01132971397259712,10.980280104326052,0.588096957498971
125.0,20.934626902590203,0.6299797634454282,0.011324463913154057,10.97987627375063,0.5881010584114842
126.0,20.938069604526248,0.6301294937563015,0.011319215364096528,10.979472530432735,0.588104825510256
127.0,20.94151152931976,0.6302791878982855,0.011313968324013894,10.979068874446456,0.5881084756552333
128.0,20.944952676224386,0.6304288458249706,0.011308722791933021,10.978665305865839,0.5881121473029486
129.0,20.94839304449385,0.6305784674899814,0.011303478768096184,10.97826182476489,0.5881157555057518
130.0,20.951832633381926,0.6307280528469689,0.011298236252752794,10.977858431217584,0.5881192457951362
131.0,20.955271442142465,0.6308776018496149,0.01129299524615905,10.977455125297855,0.5881227489307006
132.0,20.95870947002937,0.6310271144516354,0.01128775574857788,10.977051907079606,0.5881264443803721
133.0,20.962146716296633,0.6311765906067723,0.011282517760278757,10.976648776636697,0.5881303641118033
134.0,20.965583180198294,0.6313260302687987,0.011277281281537458,10.976245734042957,0.5881340772027162
135.0,20.96901886098849,0.6314754333915179,0.01127204631263598,10.975842779372178,0.588136599000995
136.0,20.972453757921407,0.6316247999287622,0.011266812853862253,10.97543991269811,0.5881393843741322
137.0,20.97588787025131,0.6317741298343972,0.011261580903954082,10.975037134094473,0.5881423970048457
138.0,20.979321197232537,0.6319234230623195,0.011256350463122376,10.974634443634944,0.5881457698128564
139.0,20.982753738119516,0.6320726795664489,0.011251121531783474,10.974231841393166,0.5881511058185213
140.0,20.98618549216674,0.6322218993007463,0.011245894110359695,10.973829327442745,0.5881540923711605
141.0,20.989616458628785,0.6323710822191977,0.011240668199278636,10.973426901857245,0.5881568881920164
142.0,20.99304663676029,0.6325202282758174,0.011235443798972795,10.973024564710194,0.588159473901243
143.0,20.99647602581601,0.6326693374246594,0.011230220909878848,10.972622316075082,0.5881617445196984
144.0,20.99990462505074,0.6328184096197982,0.011224999532437217,10.972220156025365,0.5881629593153711
145.0,21.003332433719393,0.632967444815347,0.011219779635942322,10.971818084633055,0.5881666796200973
146.0,21.006759451076956,0.6331164429654476,0.01121456124253758,10.97141610197114,0.5881702167017253
147.0,21.01018567637849,0.633265404024273,0.011209344361408146,10.971014208112967,0.5881732680113615
148.0,21.01361110887915,0.6334143279460259,0.011204128993037773,10.970612403131847,0.5881761297123791
149.0,21.017035747834186,0.6335632146849464,0.011198915124806932,10.970210687100796,0.588178824876557
150.0,21.020459592498938,0.633712064195299,0.011193702738268264,10.96980906009258,0.5881820221181052
151.0,21.023882642128832,0.6338608764313838,0.011188491860116286,10.969407522180425,0.5881854082051581
152.0,21.02730489597937,0.6340096513475326,0.011183282491040591,10.96900607343752,0.5881884486881123
153.0,21.03072635330618,0.6341583888981056,0.011178074631736935,10.96860471393701,0.5881910233566652
154.0,21.034147013364965,0.634307089037501,0.011172868282906596,10.968203443751998,0.588193218777017
155.0,21.037566875411528,0.6344557517201425,0.01116766343260397,10.967802262955221,0.5881952362299528
156.0,21.040985938701763,0.6346043769004907,0.011162460078264285,10.967401171619276,0.588196909791814
157.0,21.044404202491663,0.6347529645330346,0.011157258235226971,10.967000169817082,0.5881985488740843
158.0,21.04782166603734,0.6349015145722984,0.011152057901143856,10.966599257621377,0.5882006476974968
159.0,21.051238328594984,0.635050026972837,0.011146859054564194,10.966198435103793,0.588202809354454
160.0,21.054654189420884,0.6351985016892395,0.011141661721497286,10.965797702337134,0.5882049064484999
161.0,21.058069247771446,0.6353469386761235,0.01113646590271749,10.965397059394157,0.5882077547898937
162.0,21.061483502903172,0.635495337888143,0.01113127159899648,10.964996506347575,0.5882122919131934
163.0,21.06489695407268,0.6356436992799838,0.011126078811102164,10.964596043270062,0.5882158480681716
164.0,21.06830960053668,0.6357920228063648,0.01112088753979772,10.964195670234243,0.5882187723618808
165.0,21.071721441552008,0.6359403084220342,0.011115697785840449,10.963795387312707,0.588221197794157
166.0,21.075132476375597,0.6360885560817788,0.011110509549980866,10.963395194577993,0.5882225937989017
167.0,21.07854270426449,0.6362367657404132,0.011105322832961706,10.9629950921026,0.5882245023073891
168.0,21.08195212447584,0.6363849373527898,0.011100137605332502,10.962595079958236,0.5882266504255821
169.0,21.085360736266942,0.6365330708737895,0.011094953891405626,10.962195158217176,0.588228721787912
170.0,21.08876853889516,0.6366811662583278,0.011089771697163063,10.961795326951787,0.5882308470706873
171.0,21.092175531618015,0.6368292234613563,0.011084590994130642,10.961395586233184,0.5882330548910605
172.0,21.095581713693107,0.6369772424378565,0.011079411807284544,10.960995936133557,0.5882352557269538
173.0,21.098987084378184,0.6371252231428476,0.011074234140239232,10.96059637672517,0.5882373200224408
174.0,21.102391642931096,0.6372731655313763,0.01106905799376493,10.960196908080253,0.5882394313952067
175.0,21.105795388609828,0.6374210695585264,0.011063883368620131,10.959797530270977,0.5882414710478806
176.0,21.109198320672476,0.6375689351794182,0.01105871026382254,10.959398243369483,0.5882434844461423
177.0,21.11260043837726,0.6377167623491996,0.011053538679336672,10.958999047447854,0.5882454709325963
178.0,21.116001740982533,0.6378645510230587,0.011048368615890322,10.958599942578134,0.5882474317716136
179.0,21.119402227746768,0.6380123011562119,0.011043200048909293,10.958200928831543,0.5882493485641732
180.0,21.12280189792856,0.6381600127039125,0.011038033000306636,10.957802006279916,0.5882515003431188
181.0,21.126200750786648,0.6383076856214492,0.011032867475225536,10.957403174995182,0.5882535965877669
182.0,21.129598785579873,0.6384553198641417,0.011027703474367417,10.95700443504923,0.5882559727615724
183.0,21.13299600156724,0.6386029153873467,0.011022540998420163,10.956605786513897,0.5882584392408398
184.0,21.136392398007864,0.6387504721464535,0.011017380046670154,10.95620722946099,0.5882610759489808
185.0,21.13978797416099,0.638897990096888,0.011012220617214043,10.955808763962269,0.5882637179881174
186.0,21.14318272928601,0.6390454691941075,0.01100706271078894,10.955410390089456,0.5882662022746041
187.0,21.14657666264245,0.639192909393606,0.011001906328122152,10.955012107914227,0.5882686462743648
188.0,21.14996977348996,0.6393403106509115,0.010996751469931076,10.954613917508212,0.5882714711744638
189.0,21.15336206108835,0.6394876729215876,0.010991598136922874,10.954215818942997,0.5882742101996568
190.0,21.156753524697542,0.6396349961612319,0.010986446329631425,10.953817812290122,0.5882767861475838
191.0,21.160144163577613,0.6397822803254765,0.010981296048708103,10.953419897621085,0.5882793469639697
192.0,21.163533976988784,0.6399295253699886,0.010976147294838671,10.953022075007338,0.5882819044068773
193.0,21.166922964191404,0.6400767312504722,0.010971000065935975,10.952624344520212,0.5882845567005324
194.0,21.170311124445973,0.6402238979226647,0.010965854332974373,10.952226706230158,0.5882873922736009
