k,PSNR,SSIM,mse,Log-Gradient,Angle
0.0,20.498970338661678,0.6110212520035717,0.0,11.030948412321084,0.584873253862361
1.0,20.501982073935636,0.6111498263085151,0.01006746453923485,11.030589612411708,0.5876546649414026
2.0,20.505489484811857,0.611302335721805,0.011847494286854394,11.030178331184343,0.5876821199908592
3.0,20.509019993574306,0.6114560374715019,0.011958098849828453,11.029764660195195,0.5876773787568577
4.0,20.512552176056914,0.6116098309489436,0.011967579419499497,11.029350809615538,0.5876754351211978
5.0,20.51608421454526,0.6117636208947345,0.011965976068098039,11.028936970254888,0.5876789090916542
6.0,20.51961584518381,0.6119173935464047,0.01196227426589811,11.028523172634669,0.587684433495332
7.0,20.52314701440465,0.6120711459192715,0.011957997873556454,11.028109424415753,0.5876884837394233
8.0,20.526677706580433,0.6122248772005091,0.011953506251148605,11.02769572834894,0.5876923769960449
9.0,20.530207913387688,0.6123785869070584,0.011948918074279342,11.02728208569739,0.5876955090927698
10.0,20.533737630507787,0.6125322747968494,0.011944257014492275,11.026868497317105,0.5876984818220652
11.0,20.537266856655414,0.6126859407885353,0.011939568369924053,11.026454963644866,0.5877013574028446
12.0,20.54079559002385,0.6128395847823329,0.011934862154338257,11.026041484935249,0.5877044679085879
13.0,20.544323829509157,0.6129932067093635,0.011930148256435789,11.02562806137489,0.587707752931445
14.0,20.547851574136654,0.6131468065102116,0.01192542706573883,11.025214693208929,0.5877110342002264
15.0,20.5513788230776,0.613300384129375,0.011920701438693773,11.024801380576669,0.5877142680994674
16.0,20.55490557541519,0.6134539395067935,0.01191597389811497,11.024388123581765,0.5877175169483065
17.0,20.558431830211564,0.6136074725810716,0.011911245304442345,11.023974922313647,0.5877207989748386
18.0,20.561957586632836,0.6137609832974984,0.011906512057164434,11.023561776883923,0.5877241937241822
19.0,20.56548284388116,0.6139144716045611,0.011901777563977235,11.023148687394798,0.587727576736878
20.0,20.56900760116422,0.6140679374505996,0.011897044234926366,11.022735653934282,0.5877309914784689
21.0,20.57253185769291,0.614221380784224,0.011892309022298,11.022322676590504,0.5877344474181454
22.0,20.576055612680424,0.6143748015542488,0.011887572469255658,11.021909755458953,0.5877378589788281
23.0,20.57957886534163,0.6145281997096385,0.011882836962558044,11.021496890624842,0.5877412479017882
24.0,20.58310161489259,0.614681575199477,0.011878101594209538,11.021084082179078,0.5877445914889387
25.0,20.586623860550173,0.6148349279729379,0.011873366789904647,11.020671330199955,0.58774785250592
26.0,20.590145601531834,0.6149882579792681,0.011868631103541794,11.02025863477518,0.5877510091043279
27.0,20.59366683705538,0.6151415651677676,0.011863893117545687,11.019845996000225,0.5877541367670541
28.0,20.597187566338878,0.6152948494877811,0.01185915599814796,11.019433413954959,0.5877572460576436
29.0,20.600707788600484,0.6154481108886911,0.011854419636551662,11.01902088871563,0.5877603793375626
30.0,20.604227503058347,0.6156013493199116,0.01184968428050542,11.018608420362689,0.5877634733436136
31.0,20.60774670893059,0.6157545647308739,0.011844949933138775,11.018196008976432,0.5877664849803624
32.0,20.61126540543522,0.615907757071034,0.011840216596226307,11.01778365463703,0.5877694298888141
33.0,20.61478359179006,0.6160609262898654,0.011835484052804959,11.017371357423388,0.5877724364314308
34.0,20.6183012672128,0.6162140723368555,0.01183075196913785,11.016959117419981,0.5877753703218541
35.0,20.62181843092089,0.6163671951615028,0.011826020694342056,11.016546934706943,0.5877782272818498
36.0,20.62533508213154,0.6165202947133174,0.011821288786565584,11.016134809366939,0.5877810673586976
37.0,20.62885122006175,0.6166733709418215,0.011816556424301457,11.01572274147897,0.5877838704591692
38.0,20.632366843928214,0.6168264237965437,0.011811824674534892,11.015310731123403,0.5877865985151837
39.0,20.635881952947397,0.6169794532270173,0.01180709388146104,11.014898778379703,0.587789273790902
40.0,20.639396546335437,0.6171324591827915,0.01180236404622988,11.014486883327296,0.5877919332033921
41.0,20.64291062330822,0.617285441613416,0.011797635169757337,11.014075046045589,0.5877945474564974
42.0,20.646424183081326,0.6174384004684476,0.01179290725275906,11.013663266613964,0.5877971202533648
43.0,20.64993722487003,0.6175913356974497,0.011788180295779094,11.013251545111794,0.5877997111224041
44.0,20.653449747889304,0.617744247249993,0.01178345429921453,11.012839881618428,0.5878023090431382
45.0,20.656961751353823,0.6178971350756505,0.011778729263335548,11.01242827621321,0.5878048714438502
46.0,20.660473234477944,0.6180499991240064,0.011774005188302666,11.012016728975471,0.5878074313902394
47.0,20.66398419647573,0.6182028393446436,0.011769281913121639,11.011605239982833,0.5878100238736533
48.0,20.66749463656091,0.6183556556871544,0.011764559543569936,11.011193809314065,0.5878125551520003
49.0,20.67100455394691,0.6185084481011359,0.011759837887159204,11.010782437048206,0.5878151359230414
50.0,20.67451394784685,0.6186612165361867,0.01175511701859465,11.010371123263093,0.58781768510627
51.0,20.67802281747351,0.6188139609419162,0.011750397029280196,11.009959868037843,0.587820146617326
52.0,20.681531162039377,0.6189666812679372,0.011745677896432164,11.009548671451515,0.5878225866048488
53.0,20.685038980756616,0.6191193774638637,0.011740959714113661,11.009137533583377,0.5878251926580506
54.0,20.688546272837065,0.6192720494793175,0.011736242482700417,11.008726454512692,0.5878278190830676
55.0,20.69205303749227,0.6194246972639287,0.011731526202537874,11.008315434318725,0.5878304108892235
56.0,20.69555927393344,0.6195773207673269,0.011726810873944216,11.007904473080735,0.5878330331599316
57.0,20.69906498137149,0.6197299199391514,0.01172209649721346,11.007493570877992,0.5878359265306788
58.0,20.702570159017,0.6198824947290437,0.011717383072618064,11.00708272778976,0.5878394276529915
59.0,20.706074806080256,0.6200350450866557,0.011712670600411508,11.006671943895302,0.5878428523055738
60.0,20.709578921771232,0.6201875709616353,0.011707959080830327,11.00626121927389,0.58784609348016
61.0,20.71308250529956,0.6203400723036462,0.01170324851409589,11.005850554004791,0.5878491806758798
62.0,20.716585555874595,0.6204925490623511,0.011698538900416073,11.005439948167277,0.5878520929554031
63.0,20.720088072705366,0.6206450011874197,0.011693830239986644,11.005029401840623,0.5878548397249866
64.0,20.723590055000585,0.6207974286285297,0.011689122532992393,11.004618915104105,0.5878574940035967
65.0,20.727091501968665,0.6209498313353609,0.01168441577960826,11.004208488037,0.5878603664139791
66.0,20.730592412817703,0.6211022092576024,0.011679709980000268,11.003798120718585,0.587863135452144
67.0,20.7340927867555,0.6212545623449462,0.01167500513432623,11.00338781322815,0.5878658000553482
68.0,20.737592622989528,0.6214068905470914,0.011670301242736537,11.002977565644974,0.5878684638466242
69.0,20.74109192072697,0.6215591938137439,0.011665598305374671,11.002567378048347,0.5878710718078693
70.0,20.744590679174692,0.6217114720946139,0.011660896322377845,11.002157250517563,0.5878735372976902
71.0,20.74808889753926,0.6218637253394198,0.011656195293877316,11.001747183131908,0.5878760003405412
72.0,20.751586575026938,0.622015953497885,0.011651495219998923,11.001337175970681,0.5878784665181837
73.0,20.75508371084368,0.622168156519738,0.011646796100863284,11.00092722911318,0.5878823237448956
74.0,20.75858030419514,0.6223203343547187,0.011642097936586212,11.000517342638707,0.587886626912784
75.0,20.762076354286677,0.6224724869525675,0.011637400727278854,11.00010751662656,0.5878908271213437
76.0,20.765571860323327,0.622624614263033,0.011632704473047987,10.999697751156049,0.5878949391315795
77.0,20.769066821509856,0.622776716235874,0.011628009173996163,10.999288046306479,0.5878990191817925
78.0,20.772561237050702,0.6229287928208507,0.011623314830221797,10.99887840215716,0.5879028478707108
79.0,20.77605510615003,0.6230808439677344,0.011618621441819441,10.998468818787407,0.5879065377860059
80.0,20.779548428011687,0.6232328696263012,0.011613929008879687,10.998059296276528,0.5879107311678985
81.0,20.78304120183923,0.6233848697463343,0.011609237531489458,10.997649834703846,0.5879149650901193
82.0,20.786533426835916,0.6235368442776251,0.011604547009731868,10.997240434148678,0.5879189911317885
83.0,20.79002510220473,0.623688793169971,0.011599857443686397,10.996831094690341,0.5879226546536566
84.0,20.79351622714833,0.6238407163731748,0.011595168833428924,10.996421816408159,0.5879264145657448
85.0,20.79700680086909,0.623992613837051,0.01159048117903165,10.996012599381457,0.5879306152897943
86.0,20.800496822569123,0.6241444855114201,0.011585794443956165,10.995603443689506,0.5879347313562552
87.0,20.803986291450197,0.6242963313461071,0.011581108661356119,10.995194349411618,0.5879409485103987
88.0,20.807475206713832,0.6244481512909482,0.011576423838476915,10.994785316627127,0.5879455331897333
89.0,20.810963567561238,0.6245999452957857,0.011571739975293297,10.994376345415363,0.5879499033867689
90.0,20.814451373193346,0.6247517133104691,0.011567057071772134,10.993967435855659,0.5879545754821858
91.0,20.817938622810793,0.6249034552848572,0.011562375127872464,10.993558588027353,0.5879593617838248
92.0,20.821425315613936,0.625055171168815,0.011557694143545594,10.993149802009778,0.5879641501576199
93.0,20.824911450802833,0.6252068609122176,0.011553014118735232,10.992741077882277,0.5879688723992272
94.0,20.828397027577275,0.6253585244649454,0.011548335053377604,10.992332415724187,0.5879734967247868
95.0,20.831882045136755,0.6255101617768873,0.011543656947401696,10.99192381561485,0.5879780403519412
96.0,20.835366502680483,0.6256617727979464,0.011538979800729205,10.991515277633606,0.5879825278458499
97.0,20.838850399407406,0.6258133574780255,0.011534303606645134,10.99110680185981,0.5879869530257004
98.0,20.842333734516167,0.6259649157670416,0.011529628362433514,10.990698388372817,0.5879913544245025
99.0,20.84581650720513,0.6261164476149178,0.011524954068036952,10.990290037251977,0.5879957487219444
100.0,20.849298716672404,0.6262679529715866,0.011520280723399716,10.989881748576648,0.5880002498912145
101.0,20.852780362115794,0.6264194317869889,0.011515608327351538,10.989473522426177,0.588004756524453
102.0,20.85626144273283,0.626570884011075,0.011510936878908038,10.98906535887991,0.5880093858973233
103.0,20.859741957720782,0.6267223095938014,0.01150626637814691,10.988657258017192,0.58801395452354
104.0,20.86322190627664,0.6268737084851407,0.011501596825150043,10.988249219917362,0.5880184698179031
105.0,20.866701287597095,0.6270250806350629,0.011496928220003307,10.987841244659764,0.5880228469836285
106.0,20.870180100878596,0.6271764259935603,0.011492260562796537,10.987433332323734,0.5880270496151788
107.0,20.873658345317306,0.6273277445106232,0.011487593853623601,10.98702548298861,0.588031125602191
108.0,20.87713602010912,0.6274790361362571,0.011482928092582258,10.986617696733727,0.5880350862359018
109.0,20.880613124449653,0.6276303008204783,0.011478263279774156,10.986209973638418,0.5880388608751982
110.0,20.88408965753426,0.627781538513307,0.011473599415304795,10.985802313782013,0.5880427110699048
111.0,20.88756561855803,0.6279327491647773,0.011468936499283534,10.98539471724384,0.588046537372068
112.0,20.89104100671577,0.628083932724932,0.01146427453182351,10.984987184103224,0.5880503102784173
113.0,20.89451582120204,0.6282350891438213,0.011459613513041627,10.984579714439485,0.5880541834682517
114.0,20.897990061211114,0.6283862183715098,0.011454953443058634,10.984172308331946,0.588058094589155
115.0,20.901463725937013,0.6285373203580672,0.011450294321998955,10.98376496585992,0.5880620855714761
116.0,20.904936814573492,0.6286883950535777,0.011445636149990796,10.983357687102721,0.5880661418682807
117.0,20.90840932631405,0.6288394424081315,0.011440978927166138,10.982950472139658,0.5880701943169563
118.0,20.911881260351905,0.628990462371832,0.011436322653660704,10.982543321050034,0.5880741301516599
119.0,20.915352615880035,0.629141454894791,0.011431667329613987,10.98213623391315,0.5880779241670547
120.0,20.91882339209115,0.629292419927132,0.01142701295516926,10.981729210808307,0.5880815925416227
121.0,20.9222935881777,0.6294433574189865,0.011422359530473637,10.981322251814793,0.5880850995848641
122.0,20.92576320333187,0.6295942673205022,0.01141770705567806,10.980915357011899,0.5880894551282995
123.0,20.92923223674561,0.6297451495818297,0.011413055530937353,10.980508526478905,0.5880942995345192
124.0,20.93270068761059,0.6298960041531368,0.011408404956410321,10.980101760295094,0.5880989218489971
125.0,20.93616855511824,0.6300468309845965,0.011403755332259725,10.979695058539734,0.588102768659339
126.0,20.939635838459733,0.6301976300264004,0.011399106658652425,10.979288421292097,0.5881065488147347
127.0,20.943102536825986,0.6303484012287428,0.011394458933144317,10.978881848631419,0.5881102146009823
128.0,20.94656864940767,0.6304991445418328,0.011389812155972484,10.978475340636933,0.5881139040951221
129.0,20.950034175395203,0.6306498599158906,0.01138516632745765,10.97806889738787,0.5881174737988194
130.0,20.953499113978744,0.6308005473011488,0.011380521447927413,10.977662518963447,0.5881209536295542
131.0,20.956963464348213,0.6309512066478513,0.01137587751771621,10.977256205442881,0.5881246134036626
132.0,20.96042722569329,0.6311018379062473,0.01137123453716515,10.976849956905383,0.5881284123309467
133.0,20.963890397203386,0.6312524410266077,0.011366592506621677,10.976443773430153,0.5881324184102751
134.0,20.967352978067684,0.6314030159592058,0.01136195142643965,10.976037655096388,0.5881354479264668
135.0,20.97081496747512,0.6315535626543342,0.011357311296978985,10.97563160198328,0.5881380381186048
136.0,20.974276364614383,0.6317040810622913,0.01135267211781327,10.975225614170009,0.5881409578031039
137.0,20.977737168673922,0.6318545711333889,0.011348033888379069,10.974819691735753,0.5881439040913908
138.0,20.98119737884193,0.6320050328179537,0.011343396609166,10.974413834759682,0.5881495450461143
139.0,20.98465699430639,0.6321554660663214,0.011338760280669923,10.974008043320955,0.5881528496731933
140.0,20.98811601425502,0.6323058708288404,0.011334124903392535,10.97360231749873,0.5881557585474951
141.0,20.9915744378753,0.6324562470558721,0.011329490477840664,10.97319665737215,0.588158441408406
142.0,20.995032264354492,0.6326065946977898,0.011324857004525806,10.972791063020354,0.5881608874926806
143.0,20.998489492879603,0.6327569137049776,0.011320224483963621,10.972385534522475,0.5881627574746601
144.0,21.001946122637417,0.6329072040278363,0.011315592914137302,10.971980071957518,0.5881646033092149
145.0,21.00540215281447,0.6330574656167753,0.011310962260945709,10.971574675402909,0.5881690314693436
146.0,21.008857582597077,0.6332076984222171,0.011306332561320076,10.971169344937769,0.5881721510235783
147.0,21.01231241117132,0.6333579023945992,0.011301703815820421,10.9707640806412,0.5881751490917116
148.0,21.015766637723043,0.6335080774843694,0.011297076025008478,10.970358882592302,0.5881779485028483
149.0,21.019220261437866,0.6336582236419925,0.011292449161690593,10.96995375086972,0.5881808000533931
150.0,21.022673281501177,0.6338083408179397,0.011287823233590611,10.969548685552283,0.5881843624645734
151.0,21.02612569709814,0.6339584289627008,0.011283198256081414,10.969143686719102,0.5881875431622526
152.0,21.02957750741368,0.6341084880267792,0.01127857422993577,10.968738754449271,0.5881902886836458
153.0,21.033028711632525,0.6342585179606857,0.011273951155932545,10.968333888821881,0.588192616255763
154.0,21.036479308939143,0.6344085187149501,0.011269329034855951,10.967929089916005,0.58819470675913
155.0,21.039929298517794,0.6345584902401161,0.011264707842686152,10.96752435781006,0.5881964921382877
156.0,21.043378679552525,0.6347084324867349,0.011260087600801121,10.967119692582969,0.5881980569645652
157.0,21.046827451227156,0.634858345405377,0.01125546831293992,10.966715094313717,0.5882001074542684
158.0,21.050275612725265,0.6350082289466265,0.011250849967290132,10.966310563080663,0.5882022586274728
159.0,21.05372316323024,0.6351580830610765,0.011246232561814456,10.965906098962023,0.5882043967434905
160.0,21.05717010192523,0.6353079076993379,0.011241616112822416,10.96550170203675,0.588206895970833
161.0,21.060616427993182,0.6354577028120383,0.01123700062117122,10.96509737238378,0.588211345344575
162.0,21.064062140616812,0.6356074683498121,0.011232386087715058,10.964693110082044,0.5882152378310054
163.0,21.067507238978628,0.6357572042633136,0.011227772513304174,10.964288915210451,0.5882181496157433
164.0,21.07095172226092,0.63590691050321,0.011223159898783615,10.963884787847904,0.5882209491335996
165.0,21.074395589645775,0.6360565870201819,0.011218548244992426,10.96348072807329,0.5882223620589876
166.0,21.077838840315057,0.6362062337649238,0.011213937552762478,10.96307673596548,0.5882241898841639
167.0,21.081281473450435,0.6363558506881469,0.01120932781165695,10.962672811603056,0.5882263579327601
168.0,21.084723488233344,0.636505437740578,0.011204719008682508,10.96226895506425,0.5882284678585368
169.0,21.08816488384503,0.6366549948729548,0.011200111168329693,10.961865166427897,0.5882305936281452
170.0,21.091605659466527,0.6368045220360314,0.011195504277844623,10.961461445772235,0.5882328005096796
171.0,21.095045814278652,0.6369540191805793,0.011190898331561097,10.961057793175325,0.5882350453710854
172.0,21.098485347462027,0.6371034862573791,0.011186293348240187,10.96065420871599,0.5882371394973298
173.0,21.101924258197073,0.6372529232172334,0.011181689328744982,10.960250692473041,0.5882392656932279
174.0,21.105362545663994,0.637402330010954,0.011177086273927283,10.959847244525275,0.5882413284418871
175.0,21.108800209042798,0.6375517065893741,0.011172484183590948,10.959443864951472,0.5882433715836628
176.0,21.112237247513303,0.6377010529033368,0.01116788305707944,10.959040553830402,0.5882453831217361
177.0,21.11567366025511,0.6378503689037041,0.011163282895214068,10.958637311240816,0.588247365897101
178.0,21.119109446447627,0.6379996545413501,0.01115868368445623,10.958234137261,0.5882493086529623
179.0,21.12254460527008,0.6381489097671696,0.011154085424635229,10.957831031969206,0.5882514778040819
180.0,21.12597913590147,0.638298134532066,0.011149488132198149,10.957427995444165,0.5882536050808065
181.0,21.12941303752062,0.638447328786966,0.01114489180794107,10.95702502776459,0.5882559973706635
182.0,21.132846309306153,0.6385964924828085,0.011140296452646792,10.956622129009183,0.5882584900273942
183.0,21.13627895043651,0.6387456255705456,0.01113570206573417,10.956219299256636,0.5882611430239267
184.0,21.139710960089914,0.6388947280011522,0.01113110864528592,10.955816538585633,0.5882638106157799
185.0,21.143142337444417,0.6390437997256145,0.011126516192134601,10.955413847074846,0.5882663149158288
186.0,21.14657308167788,0.639192840694935,0.011121924707103064,10.95501122480293,0.5882687918358029
187.0,21.15000319196796,0.6393418508601342,0.011117334191004392,10.954608671848531,0.5882716420257924
188.0,21.153432667492144,0.6394908301722465,0.011112744644641645,10.954206188290273,0.5882744038990388
189.0,21.156861507427717,0.6396397785823279,0.011108156068637952,10.953803774206769,0.5882769939858228
190.0,21.16028971095178,0.6397886960414451,0.011103568463743961,10.953401429676621,0.5882795902005508
191.0,21.16371727724125,0.6399375825006846,0.011098981830741865,10.952999154778412,0.5882821989252304
192.0,21.167144205472862,0.6400864379111487,0.011094396170402848,10.952596949590712,0.5882849341504098
193.0,21.170570494823156,0.640235262223957,0.011089811463012224,10.952194814191499,0.5882877930346936
194.0,21.1739961444685,0.6403840553902458,0.011085227714065787,10.951792748658871,0.5882907514782939
