k,PSNR,SSIM,mse,Log-Gradient,Angle
0.0,20.498970338661678,0.6110212520035717,0.0,11.030948412321084,0.584873253862361
1.0,20.501982291948927,0.6111498356157455,0.010068193233988224,11.030589586438104,0.5876546652319177
2.0,20.50549017476711,0.6113023653776112,0.011849070643666425,11.030178249458432,0.5876821230459032
3.0,20.509021411118198,0.6114560986057579,0.01196053732746991,11.02976449275784,0.587677382748459
4.0,20.51255457699,0.6116099346996805,0.011970882607375378,11.029350526488818,0.587675439071806
5.0,20.516087854691584,0.6117637784012847,0.011970144075225331,11.028936541455876,0.5876789075457393
6.0,20.519620980371887,0.6119176159484091,0.011967306689998064,11.028522568177658,0.5876844387490943
7.0,20.523153900463356,0.6120714443564469,0.011963894176318518,11.02810861431285,0.5876884903711299
8.0,20.5266865993376,0.6122252628125661,0.011960265850128939,11.027694682610317,0.5876923863688738
9.0,20.53021906866921,0.6123790708336492,0.01195654036798743,11.027280774331393,0.5876955214378722
10.0,20.53375130413691,0.6125328681775271,0.01195274139517375,11.02686689033037,0.5876984970464647
11.0,20.537283304452416,0.6126866547627287,0.011948914219407806,11.026453031042378,0.5877013756087663
12.0,20.540815067805575,0.6128404304893212,0.011945068852860043,11.026039196720385,0.587704488142254
13.0,20.544346593088637,0.6129941952882438,0.011941215181291815,11.025625387549466,0.5877077765513821
14.0,20.547877879322737,0.6131479490998841,0.01193735359318769,11.02521160377326,0.5877110610746594
15.0,20.551408925674572,0.613301691868516,0.01193348694513972,11.0247978455296,0.5877142986348459
16.0,20.55493973122243,0.6134554235338294,0.01192961775806999,11.024384112920712,0.5877175521804167
17.0,20.558470295023138,0.6136091440341573,0.011925746893137655,11.023970406034627,0.587720838745917
18.0,20.56200061623717,0.6137628533144901,0.011921870751222781,11.023556724981592,0.5877242357740668
19.0,20.565530694060662,0.6139165513229956,0.011917992737016062,11.023143069862497,0.5877276236306296
20.0,20.569060527694916,0.6140702380076699,0.011914115260222614,11.022729440764067,0.5877310444609732
21.0,20.572590116344074,0.6142239133167593,0.011910235275753293,11.02231583777318,0.5877345058415236
22.0,20.576119459214233,0.6143775771986814,0.01190635332549755,11.021902260984108,0.5877379218803697
23.0,20.5796485555128,0.6145312296019901,0.011902471794065481,11.021488710480885,0.5877413155523953
24.0,20.58317740444799,0.6146848704753333,0.011898589774655065,11.02107518635328,0.5877446633295297
25.0,20.586706005228503,0.6148384997674192,0.011894707692560152,11.02066168867848,0.5877479293930149
26.0,20.59023435706321,0.6149921174270134,0.011890824105075016,11.02024821754311,0.587751087750666
27.0,20.593762459161017,0.6151457234029051,0.01188693759236257,11.019834773041609,0.5877542225639844
28.0,20.59729031073069,0.6152993176439087,0.011883051318693298,11.019421355252849,0.5877573393952752
29.0,20.600817910980737,0.6154529000988532,0.01187916517598859,11.019007964252115,0.5877604787126601
30.0,20.60434525911929,0.615606470716567,0.011875279411590108,11.018594600118924,0.587763577406735
31.0,20.607872354354086,0.6157600294458839,0.011871394028608054,11.01818126293268,0.5877665919631977
32.0,20.61139919589236,0.6159135762356353,0.011867509028798197,11.017767952772692,0.5877695465527174
33.0,20.614925782940855,0.6160671110346391,0.011863624196008875,11.017354669717037,0.5877725583013413
34.0,20.618452114705732,0.6162206337917123,0.011859739195788461,11.016941413849404,0.5877754933513841
35.0,20.621978190392603,0.6163741444556535,0.01185585437909352,11.016528185249168,0.5877783552279803
36.0,20.625504009206452,0.6165276429752563,0.01185196830561911,11.016114983998285,0.587781204897931
37.0,20.62902957035167,0.6166811292992941,0.011848081152472777,11.015701810175058,0.5877840108381482
38.0,20.632554873032,0.6168346033765276,0.011844193981480629,11.01528866385922,0.5877867433290619
39.0,20.636079916450537,0.6169880651556994,0.011840307139771643,11.014875545129618,0.5877894239805506
40.0,20.639604699809748,0.6171415145855403,0.011836420628479134,11.014462454065104,0.5877920917570575
41.0,20.643129222311405,0.6172949516147604,0.011832534448502205,11.014049390744542,0.5877947082486407
42.0,20.64665348315664,0.6174483761920544,0.011828648600539544,11.013636355246817,0.5877972889153783
43.0,20.6501774815459,0.6176017882660972,0.011824763085118255,11.013223347650822,0.5877998927539286
44.0,20.65370121667895,0.6177551877855473,0.0118208779026181,11.012810368035478,0.5878024957624971
45.0,20.657224687754884,0.6179085746990416,0.011816993053291888,11.012397416479729,0.5878050638606894
46.0,20.660747893972115,0.6180619489552069,0.01181310853728258,11.011984493062545,0.5878076376830685
47.0,20.664270834528363,0.6182153105026423,0.011809224194116825,11.011571597861225,0.5878102346308897
48.0,20.66779350862065,0.6183686592899326,0.011805340128940044,11.011158730954241,0.5878127747999579
49.0,20.67131591544534,0.6185219952656422,0.011801456150321991,11.010745892420363,0.5878153686568851
50.0,20.674838054198055,0.618675318378317,0.011797572331951459,11.010333082337223,0.5878179211289492
51.0,20.678359924073767,0.6188286285764887,0.011793688765312461,11.009920300783753,0.5878203795969936
52.0,20.681881524266736,0.6189819258086594,0.011789805427843646,11.009507547838869,0.5878228396363476
53.0,20.68540285397052,0.6191352100233235,0.011785922413250377,11.009094823581727,0.5878254671063161
54.0,20.68892391237799,0.6192884811689495,0.01178203972188834,11.008682128091515,0.5878281064797023
55.0,20.69244469868133,0.6194417391939916,0.011778157354082578,11.008269461447455,0.587830706376457
56.0,20.69596521207201,0.6195949840468803,0.011774275310130674,11.007856823728813,0.5878333403238859
57.0,20.69948545174082,0.6197482156760313,0.011770393590305654,11.007444215014884,0.5878363464032808
58.0,20.703005416877854,0.6199014340298374,0.011766512194858933,11.007031635385005,0.5878398626445345
59.0,20.706525106672494,0.6200546390566808,0.011762631124022468,11.006619084918546,0.5878432840879603
60.0,20.71004452031344,0.6202078307049114,0.011758750378011025,11.00620656369492,0.5878465181658533
61.0,20.71356365698869,0.6203610089228752,0.011754869957024027,11.005794071793575,0.5878495978630955
62.0,20.71708251588555,0.6205141736588872,0.011750989861247016,11.005381609294,0.5878525006511554
63.0,20.72060109619063,0.6206673248612521,0.01174711009085311,11.004969176275718,0.5878552303347228
64.0,20.724119397089833,0.6208204624782535,0.011743230646004278,11.004556772818296,0.587857917283943
65.0,20.727637417768374,0.6209735864581528,0.011739351526852257,11.004144399001335,0.5878608136824698
66.0,20.731155157410775,0.6211266967491994,0.011735472733539571,11.003732054904479,0.5878635693322368
67.0,20.73467261520086,0.6212797932996187,0.01173159426620028,11.003319740607408,0.5878662454309121
68.0,20.73818979032175,0.6214328760576202,0.011727716124960656,11.002907456189844,0.5878689296453906
69.0,20.74170668195588,0.6215859449713971,0.011723838309939864,11.002495201731545,0.5878715161215601
70.0,20.745223289284986,0.6217389999891195,0.011719960821250344,11.00208297731231,0.5878739834214565
71.0,20.74873961149011,0.6218920410589428,0.011716083658998436,11.001670783011981,0.5878764756808362
72.0,20.752255647751593,0.6220450681290034,0.011712206823284617,11.001258618910434,0.5878790441842433
73.0,20.755771397249095,0.6221980811474218,0.011708330314203966,11.000846485087584,0.5878831608186833
74.0,20.759286859161566,0.6223510800622947,0.011704454131846287,11.000434381623391,0.587887502687231
75.0,20.76280203266727,0.622504064821707,0.011700578276296591,11.000022308597849,0.5878916864593202
76.0,20.76631691694378,0.6226570353737223,0.011696702747635054,10.999610266090995,0.5878958454380271
77.0,20.769831511167975,0.6228099916663858,0.011692827545937375,10.999198254182906,0.5878998923501378
78.0,20.773345814516034,0.6229629336477308,0.011688952671274821,10.998786272953692,0.5879036908010945
79.0,20.776859826163445,0.6231158612657666,0.011685078123714396,10.998374322483512,0.587907395148395
80.0,20.78037354528501,0.6232687744684853,0.01168120390331896,10.997962402852554,0.5879117518352804
81.0,20.783886971054834,0.6234216732038641,0.011677330010147204,10.997550514141057,0.587915991795851
82.0,20.787400102646334,0.6235745574198622,0.011673456444253862,10.997138656429287,0.5879199501108411
83.0,20.79091293923223,0.623727427064422,0.01166958320568961,10.996726829797561,0.5879235467387374
84.0,20.794425479984554,0.6238802820854646,0.011665710294501185,10.996315034326225,0.5879275858011214
85.0,20.797937724074643,0.6240331224308996,0.011661837710731428,10.995903270095672,0.5879316086670997
86.0,20.80144967067315,0.6241859480486148,0.01165796543614503,10.9954915371863,0.5879367142741686
87.0,20.80496131895003,0.6243387588864838,0.011654093467812458,10.995079835678542,0.5879422964143896
88.0,20.808472668074565,0.6244915548923616,0.011650221830653193,10.994668165652904,0.5879468166962917
89.0,20.811983717215327,0.6246443360140869,0.011646350524610365,10.994256527189934,0.5879512786316974
90.0,20.81549446554021,0.62479710219948,0.011642479549618721,10.99384492037022,0.5879560138922029
91.0,20.819004912216414,0.6249498533963477,0.011638608905604989,10.993433345274388,0.5879608705750097
92.0,20.82251505641046,0.6251025895524759,0.011634738592487643,10.993021801983105,0.5879656575052055
93.0,20.826024897288168,0.6252553106156374,0.011630868610177343,10.992610290577074,0.5879703855634292
94.0,20.829534434014683,0.6254080165335861,0.01162699895857689,10.99219881113704,0.5879750272256958
95.0,20.83304366575446,0.6255607072540594,0.011623129637581355,10.99178736374379,0.5879795718401065
96.0,20.83655259167125,0.6257133827247787,0.011619260647078382,10.991375948478142,0.5879840707297513
97.0,20.84006121092815,0.6258660428934507,0.011615391977675789,10.990964565420969,0.5879885165246854
98.0,20.84356952268754,0.6260186877077644,0.011611523629219689,10.990553214653183,0.5879929526375155
99.0,20.84707752611113,0.6261713171153893,0.011607655601618718,10.990141896255732,0.5879974127038431
100.0,20.85058522035995,0.6263239310639849,0.011603787894782832,10.989730610309602,0.5880019463378184
101.0,20.854092604594328,0.6264765295011908,0.011599920507084156,10.989319356895809,0.5880065296226442
102.0,20.85759967797393,0.6266291123746293,0.01159605343794696,10.988908136095406,0.5880111993692955
103.0,20.861106439657707,0.6267816796319108,0.011592186687415082,10.988496947989484,0.5880157803290639
104.0,20.86461288880396,0.6269342312206282,0.011588320255536154,10.988085792659168,0.5880202813001488
105.0,20.868119024570284,0.6270867670883554,0.011584454142361584,10.987674670185621,0.5880246073055919
106.0,20.87162484611359,0.6272392871826543,0.011580588347946489,10.98726358065004,0.5880288102632378
107.0,20.875130352590133,0.6273917914510713,0.011576722872349694,10.986852524133663,0.5880328703514444
108.0,20.87863554315546,0.6275442798411327,0.011572857715633699,10.986441500717763,0.588036776108211
109.0,20.88214041696444,0.627696752300356,0.011568992877864531,10.986030510483644,0.5880405658421314
110.0,20.885644973171264,0.6278492087762358,0.011565128359111883,10.985619553512654,0.5880444769594243
111.0,20.889149210929464,0.6280016492162607,0.011561264159448997,10.98520862988617,0.5880482992628518
112.0,20.892653129391846,0.6281540735678934,0.011557400278952619,10.984797739685607,0.5880521301641358
113.0,20.896156727710572,0.6283064817785876,0.011553536717703036,10.984386882992418,0.5880560783988096
114.0,20.899660005037116,0.6284588737957827,0.011549673475784016,10.983976059888088,0.5880600582964325
115.0,20.903162960522277,0.6286112495669004,0.011545810553282859,10.983565270454138,0.5880640950669215
116.0,20.90666559331616,0.6287636090393448,0.011541947950290371,10.983154514772128,0.5880682285562226
117.0,20.910167902568197,0.6289159521605111,0.011538085666900769,10.982743792923646,0.5880722614674523
118.0,20.913669887427165,0.6290682788777792,0.011534223703211869,10.982333104990323,0.5880761485905673
119.0,20.917171547041132,0.6292205891385083,0.011530362059324973,10.981922451053816,0.5880799181036449
120.0,20.92067288055751,0.6293728828900461,0.011526500735344935,10.981511831195823,0.5880835437266485
121.0,20.924173887123025,0.6295251600797281,0.011522639731380187,10.981101245498076,0.5880874417856635
122.0,20.927674565883734,0.6296774206548732,0.011518779047542756,10.980690694042336,0.5880921509058871
123.0,20.931174915985014,0.6298296645627838,0.011514918683948395,10.980280176910403,0.5880970716742744
124.0,20.934674936571565,0.629981891750751,0.011511058640716517,10.979869694184112,0.5881012114403529
125.0,20.938174626787422,0.6301341021660507,0.011507198917970331,10.979459245945325,0.5881050376988037
126.0,20.941673985775935,0.6302862957559444,0.011503339514461315,10.979048832275932,0.588108739535226
127.0,20.94517301267978,0.6304384724676785,0.011499480429034365,10.978638453257842,0.5881124823859462
128.0,20.948671706640987,0.6305906322484879,0.011495621661965737,10.978228108972997,0.5881161421107214
129.0,20.952170066800875,0.63074277504559,0.011491763213538621,10.977817799503374,0.5881196868741226
130.0,20.95566809230011,0.6308949008061907,0.011487905084042979,10.977407524930982,0.588123280868974
131.0,20.95916578227869,0.6310470094774819,0.011484047273775328,10.976997285337859,0.5881270549936097
132.0,20.962663135875932,0.6311991010066388,0.011480189783038745,10.976587080806086,0.5881311018211779
133.0,20.96616015223049,0.631351175340828,0.011476332612142485,10.976176911417767,0.5881346330978706
134.0,20.96965683048034,0.6315032324272005,0.011472475761401951,10.975766777255043,0.5881371541882889
135.0,20.9731531697628,0.63165527221289,0.011468619230882578,10.97535667840009,0.5881400770035113
136.0,20.97664916921451,0.6318072946450212,0.011464763019363462,10.974946614935108,0.5881431838382442
137.0,20.98014482797144,0.631959299670704,0.011460907127291036,10.974536586942342,0.5881479724803224
138.0,20.98364014516891,0.6321112872370342,0.011457051555118267,10.974126594504057,0.58815204685722
139.0,20.98713511994154,0.6322632572910957,0.011453196303304158,10.973716637702557,0.588155029331137
140.0,20.990629751423313,0.6324152097799599,0.011449341372313166,10.973306716620176,0.5881577945395352
141.0,20.994124038747533,0.6325671446506816,0.011445486762614658,10.97289683133928,0.5881603394525851
142.0,20.997617981046833,0.6327190618503072,0.011441632474682377,10.972486981942266,0.5881624469711558
143.0,21.001111577453194,0.6328709613258647,0.01143777850899391,10.97207716851156,0.5881629672745109
144.0,21.00460482709792,0.6330228430243764,0.011433924849277985,10.971667391128843,0.5881683254426149
145.0,21.00809772911166,0.6331747068928447,0.01143007149002923,10.971257649875575,0.5881715752644759
146.0,21.01159028262439,0.6333265528782632,0.011426218453716377,10.970847944834286,0.5881746428826121
147.0,21.015082486765436,0.6334783809276149,0.011422365740860084,10.970438276087542,0.5881775074203462
148.0,21.01857434066345,0.6336301909878622,0.011418513349596662,10.97002864371795,0.5881802326567532
149.0,21.02206584344642,0.6337819830059652,0.011414661238864147,10.969619047807413,0.5881838942953719
150.0,21.025556994241672,0.6339337569288653,0.011410809447042718,10.969209488438619,0.5881871673120435
151.0,21.029047792175888,0.6340855127034929,0.011406957975041394,10.968799965694291,0.5881900125898668
152.0,21.03253823637507,0.6342372502767666,0.011403106823599721,10.96839047965718,0.5881924084836492
153.0,21.03602832596458,0.634388969595594,0.011399255993463048,10.967981030410064,0.5881945354852648
154.0,21.039518060069096,0.6345406706068685,0.011395405472893937,10.967571618035427,0.5881963734578893
155.0,21.043007437812655,0.6346923532574719,0.011391555259316677,10.967162242615675,0.5881979297895167
156.0,21.04649645831862,0.6348440174942762,0.01138770536801912,10.966752904233616,0.588199980349794
157.0,21.04998512070972,0.6349956632641374,0.011383855799799279,10.966343602972085,0.5882021486577819
158.0,21.053473424108002,0.6351472905139066,0.011380006530797189,10.965934338912732,0.5882043061614423
159.0,21.05696136763487,0.635298899190416,0.011376157583271878,10.965525112138293,0.5882069073524759
160.0,21.060448950411065,0.63545048924049,0.011372308961182364,10.965115922731691,0.5882114073880643
161.0,21.063936171556662,0.6356020606109435,0.011368460665351188,10.964706770775877,0.5882152699816031
162.0,21.06742303019111,0.6357536132485755,0.011364612696597604,10.964297656353823,0.5882182174082607
163.0,21.070909525433187,0.6359051471001744,0.011360765055736322,10.963888579548536,0.5882210748980093
164.0,21.074395656401,0.6360566621125199,0.011356917743576467,10.963479540443043,0.5882224973975716
165.0,21.077881422212034,0.6362081582323807,0.011353070760920623,10.963070539120402,0.5882243767678256
166.0,21.081366821983107,0.6363596354065124,0.011349224108563693,10.962661575663695,0.588226570778792
167.0,21.084851854830376,0.6365110935816595,0.011345377754129405,10.962252650155197,0.5882286993775085
168.0,21.08833651986936,0.6366625327045571,0.011341531727187382,10.961843762677967,0.5882308579711351
169.0,21.091820816214927,0.636813952721928,0.011337686028498876,10.961434913315044,0.5882331077797348
170.0,21.095304742981284,0.6369653535804859,0.011333840631251915,10.961026102148386,0.5882353624903303
171.0,21.098788299281992,0.6371167352269334,0.011329995564635768,10.960617329261241,0.5882374808915153
172.0,21.10227148422996,0.6372680976079597,0.01132615082948756,10.960208594736883,0.588239638104652
173.0,21.105754296937455,0.6374194406702506,0.011322306426633491,10.959799898658611,0.5882417214275625
174.0,21.109236736516092,0.6375707643604734,0.011318462356047937,10.959391241109754,0.5882437810788882
175.0,21.112718802076845,0.6377220686252886,0.011314618616825997,10.958982622173663,0.5882458073304281
176.0,21.11620049273003,0.6378733534113471,0.011310775209763368,10.95857404193371,0.5882478323111658
177.0,21.119681807585323,0.638024618665289,0.01130693212730009,10.958165500473038,0.5882498035974228
178.0,21.12316274575175,0.6381758643337453,0.011303089356980451,10.957756997874393,0.5882520568747617
179.0,21.126643306337705,0.6383270903633337,0.011299246921454772,10.95734853422125,0.5882542276128856
180.0,21.130123488450927,0.6384782967006664,0.011295404821494357,10.95694010959711,0.5882567188954534
181.0,21.1336032911985,0.6386294832923433,0.01129156305785718,10.956531724085503,0.588259246724108
182.0,21.137082713686883,0.6387806500849541,0.011287721628870106,10.95612337776999,0.5882619857421427
183.0,21.14056175502189,0.6389317970250802,0.01128388053359035,10.955715070734163,0.5882646202268288
184.0,21.144040414308677,0.639082924059292,0.011280039772827247,10.955306803061646,0.5882671159308207
185.0,21.147518690651772,0.6392340311341522,0.01127619934738052,10.95489857483608,0.5882697725368676
186.0,21.15099658315506,0.639385118196211,0.011272359258040137,10.954490386141137,0.5882726271914076
187.0,21.15447409092178,0.639536185192016,0.01126851950556576,10.95408223706052,0.5882753809950675
188.0,21.157951213054538,0.6396872320680954,0.011264680090533401,10.953674127677951,0.5882779812634173
189.0,21.161427948655287,0.6398382587709759,0.011260841013713442,10.953266058077181,0.5882806442632439
190.0,21.16490429682536,0.6399892652471725,0.01125700227586537,10.952858028341991,0.5882833354453185
191.0,21.168380256665436,0.6401402514431919,0.01125316387773761,10.95245003855618,0.58828619982368
192.0,21.17185582727554,0.6402912173055301,0.011249325812037976,10.952042088803347,0.5882890803577145
193.0,21.175331007755098,0.6404421627806746,0.011245488059662584,10.951634179166557,0.5882922503987907
194.0,21.17880579720286,0.6405930878151084,0.011241650647575758,10.951226309729652,0.5882952672461904
