k,PSNR,SSIM,mse,Log-Gradient,Angle
0.0,20.498970338661678,0.6110212520035717,0.0,11.030948412321084,0.584873253862361
1.0,20.50198236653967,0.6111498388001076,0.01006844254851605,11.030589577551536,0.587654665331315
2.0,20.505490410834618,0.6113023755243138,0.011849610000176983,11.030178221495987,0.5876821240910778
3.0,20.50902189614473,0.6114561195234381,0.011961371701074437,11.02976443546749,0.5876773841140216
4.0,20.512555398518998,0.6116099702001303,0.01197201291264493,11.029350429611112,0.5876754404233399
5.0,20.516089100283036,0.6117638322971204,0.011971570378161869,11.028936394728646,0.587678907018245
6.0,20.519622737595817,0.6119176920527212,0.011969028881665674,11.028522361336787,0.5876844405482761
7.0,20.52315625689847,0.6120715464827219,0.011965912101218642,11.028108337092474,0.5876884926399956
8.0,20.52668964257077,0.6122253947746606,0.011962579337637147,11.027694324742903,0.5876923895756451
9.0,20.53022288629517,0.6123792364457725,0.011959149240934944,11.027280325547787,0.5876955256618176
10.0,20.533755983758056,0.6125330712542247,0.011955645474219739,11.026866340359824,0.5876985022557321
11.0,20.537288933678667,0.6126868991188781,0.011952113321619015,11.02645236961258,0.5877013818382985
12.0,20.54082173425423,0.6128407199401203,0.011948562794728746,11.026038413557467,0.587704495065738
13.0,20.54435438438425,0.6129945336492024,0.01194500377827531,11.025624472378018,0.5877077846335789
14.0,20.547886883096986,0.6131483401868166,0.011941436660358773,11.025210546316355,0.5877110702704156
15.0,20.551419229566147,0.6133021394975313,0.011937864297591382,11.024796635508801,0.5877143090831703
16.0,20.5549514228769,0.6134559315213272,0.011934289210218389,11.024382740056083,0.5877175642397598
17.0,20.558483462092852,0.6136097161968141,0.011930712259615301,11.023968860044745,0.587720852354168
18.0,20.5620153463811,0.6137634934692567,0.011927129847108274,11.023554995583561,0.5877242501693257
19.0,20.56554707494432,0.6139172632870883,0.011923545376330476,11.02314114677196,0.5877276397272578
20.0,20.569078646990203,0.6140710255985594,0.011919961256840928,11.02272731369522,0.587731062588512
21.0,20.57261006172919,0.6142247803521644,0.011916374444418077,11.022313496438777,0.5877345258299475
22.0,20.576141318373537,0.6143785274965613,0.011912785480486151,11.02189969509547,0.5877379433997859
23.0,20.579672416136678,0.6145322669805405,0.01190919674889052,11.021485909747925,0.5877413386983092
24.0,20.58320335423277,0.614685998752971,0.01190560734320746,11.021072140484504,0.5877446879040081
25.0,20.5867341318763,0.6148397227627802,0.011902017688564054,11.020658387381005,0.5877479556918019
26.0,20.590264748281836,0.6149934389589393,0.011898426343385756,11.020244650522661,0.5877511146477028
27.0,20.593795202663834,0.6151471472904428,0.011894831887032106,11.019830930002549,0.5877542519397296
28.0,20.597325494236504,0.6153008477062968,0.01189123748307327,11.01941722589818,0.587757371332159
29.0,20.60085562221367,0.6154545401555125,0.01188764302364623,11.019003538283492,0.5877605127093405
30.0,20.604385585808657,0.6156082245871002,0.011884048755923617,11.018589867236669,0.5877636130200665
31.0,20.60791538423427,0.6157619009500602,0.011880454682979004,11.018176212835787,0.5877666285392552
32.0,20.61144501670271,0.6159155691933856,0.011876860806531744,11.017762575158844,0.587769586825722
33.0,20.614974482425534,0.6160692292660487,0.011873266910677485,11.017348954282614,0.5877726001215873
34.0,20.618503780613622,0.6162228811170124,0.011869672660690195,11.016935350289495,0.5877755353903183
35.0,20.62203291047716,0.6163765246952128,0.011866078408125171,11.016521763257584,0.5877783990590777
36.0,20.625561871225592,0.6165301599495695,0.011862482713176263,11.016108193267574,0.5877812519496403
37.0,20.629090662067643,0.6166837868289824,0.01185888575244812,11.015694640396502,0.5877840588481603
38.0,20.632619282211277,0.6168374052823206,0.011855288585971593,11.015281104722863,0.5877867934547173
39.0,20.636147730863673,0.6169910152584372,0.01185169156184912,11.014867586324273,0.5877894753157057
40.0,20.63967600723125,0.6171446167061573,0.011848094681178145,11.014454085278361,0.5877921459518368
41.0,20.643204110519648,0.6172982095742797,0.011844497944821814,11.014040601662783,0.5877947631398704
42.0,20.646732039933685,0.6174517938115817,0.011840901353442847,11.013627135555224,0.5877973466075385
43.0,20.65025979467741,0.6176053693668112,0.011837304907532193,11.01321368703339,0.5877999548612938
44.0,20.653787373954046,0.6177589361886923,0.011833708607433545,11.01280025617503,0.5878025600358816
45.0,20.65731477696605,0.6179124942259202,0.011830112453363448,11.012386843057923,0.5878051295107715
46.0,20.66084200291501,0.618066043427166,0.011826516445428488,11.011973447759887,0.5878077080772593
47.0,20.664369051001763,0.6182195837410736,0.01182292042330296,11.011560070357081,0.5878103067043116
48.0,20.667895920426286,0.6183731151162579,0.011819324491886092,11.011146710926852,0.5878128499533863
49.0,20.671422610387758,0.6185266375013102,0.011815728460078787,11.010733369546841,0.587815448058787
50.0,20.674949120084534,0.618680150844793,0.011812132401192046,11.010320046293586,0.5878180017407179
51.0,20.67847544871416,0.6188336550952438,0.011808536406706779,11.009906741244924,0.5878204591025402
52.0,20.68200159547333,0.6189871502011665,0.011804940454107293,11.009493454478692,0.5878229263770388
53.0,20.685527559557954,0.6191406361110476,0.01180134463694626,11.009080186072971,0.5878255608287107
54.0,20.68905334016309,0.6192941127733401,0.011797748955541925,11.008666936105893,0.58782820433439
55.0,20.69257893648298,0.6194475801364697,0.011794153410181954,11.00825370465564,0.5878308071932961
56.0,20.696104347711056,0.61960103814884,0.011790558001126265,11.007840491800435,0.5878334453489181
57.0,20.699629573039914,0.6197544867588208,0.011786962728610302,11.007427297618555,0.5878364914971282
58.0,20.70315461166132,0.6199079259147611,0.01178336759284754,11.007014122188325,0.5878400132293796
59.0,20.706679462766225,0.6200613555649764,0.011779772594032081,11.00660096558812,0.5878434310240627
60.0,20.71020412554475,0.6202147756577637,0.01177617773234063,11.006187827896364,0.58784666241779
61.0,20.713728599186197,0.6203681861413862,0.011772583007934398,11.005774709191531,0.5878497395046401
62.0,20.717252882879023,0.6205215869640822,0.011768988420960661,11.005361609552143,0.5878526388136516
63.0,20.720776975810878,0.620674978074062,0.011765393971554135,11.004948529056778,0.5878553641306888
64.0,20.72430087716858,0.6208283594195124,0.01176179965983824,11.004535467784061,0.5878580610368572
65.0,20.727824586138112,0.62098173094859,0.011758205485925993,11.004122425812668,0.5878609659998998
66.0,20.731348101904643,0.6211350926094248,0.011754611449921196,11.003709403221325,0.5878637172522857
67.0,20.734871423652514,0.6212884443501214,0.011751017551918975,11.003296400088812,0.5878663980626233
68.0,20.73839455056522,0.6214417861187583,0.011747423792006549,11.002883416493962,0.5878690886300787
69.0,20.741917481825453,0.6215951178633853,0.011743830170263883,11.00247045251565,0.5878716674922976
70.0,20.74544021661506,0.6217484395320271,0.011740236686764195,11.002057508232815,0.587874135421077
71.0,20.748962754115077,0.6219017510726835,0.011736643341574317,11.001644583724438,0.5878766365087374
72.0,20.752485093505694,0.6220550524333239,0.011733050134755214,11.001231679069555,0.5878792982472565
73.0,20.756007233966294,0.6222083435618918,0.011729457066362243,11.000818794347254,0.5878834500682789
74.0,20.759529174675414,0.6223616244063085,0.011725864136445448,11.000405929636674,0.5878877996835967
75.0,20.763050914810783,0.6225148949144645,0.011722271345049825,10.999993085017005,0.5878919789922411
76.0,20.766572453549287,0.6226681550342269,0.01171867869221549,10.99958026056749,0.58789615387218
77.0,20.770093790066987,0.6228214047134347,0.011715086177977917,10.999167456367422,0.5879001888522627
78.0,20.773614923539128,0.6229746438999028,0.011711493802368057,10.99875467249615,0.5879039763622268
79.0,20.777135853140123,0.6231278725414172,0.0117079015654124,10.998341909033066,0.587907729642566
80.0,20.780656578043548,0.6232810905857388,0.011704309467133156,10.997929166057625,0.5879121011632352
81.0,20.784177097422166,0.6234342979806068,0.01170071750754834,10.997516443649324,0.5879163379444914
82.0,20.787697410447898,0.6235874946737282,0.01169712568667172,10.997103741887717,0.5879202735920327
83.0,20.79121751629186,0.6237406806127864,0.011693534004513,10.996691060852408,0.5879238474967058
84.0,20.79473741412432,0.6238938557454404,0.011689942461077733,10.996278400623053,0.5879279858711649
85.0,20.798257103114732,0.6240470200193223,0.011686351056367434,10.99586576127936,0.5879319177671162
86.0,20.80177658243172,0.624200173382038,0.011682759778356196,10.995453142901066,0.5879373636527446
87.0,20.805295851243088,0.6243533157811715,0.011679168611780488,10.995040545567939,0.5879427400862381
88.0,20.8088149087158,0.6245064471642731,0.011675577587554291,10.99462796935984,0.5879472507586228
89.0,20.812333754016006,0.624659567478877,0.011671986705578539,10.994215414356683,0.5879517467206244
90.0,20.815852386309025,0.6248126766724876,0.011668395965745645,10.993802880638436,0.5879565171797926
91.0,20.819370804759348,0.6249657746925825,0.011664805367939846,10.993390368285118,0.5879613850573594
92.0,20.822889008530645,0.6251188614866144,0.011661214912037025,10.992977877376799,0.5879661777144054
93.0,20.82640699678576,0.625271937002014,0.011657624597905068,10.992565407993602,0.587970900268172
94.0,20.82992476868671,0.6254250011861847,0.011654034425403812,10.992152960215703,0.5879755488439208
95.0,20.833442323394685,0.6255780539865067,0.01165044439438528,10.991740534123329,0.5879800935194947
96.0,20.83695966007005,0.6257310953503282,0.011646854503866102,10.991328129796754,0.5879845967509797
97.0,20.840476777872357,0.6258841252249808,0.011643264745161442,10.990915747316322,0.5879890498290072
98.0,20.843993675960306,0.6260371435577684,0.011639675118135559,10.990503386762423,0.5879934999686153
99.0,20.847510353491806,0.6261901502959684,0.011636085622653922,10.9900910482155,0.5879979795404832
100.0,20.85102680962391,0.6263431453868346,0.011632496258583083,10.989678731756042,0.5880025272825535
101.0,20.85454304351287,0.6264961287775969,0.011628907024108504,10.989266437464586,0.5880071465713329
102.0,20.85805905431409,0.6266491004154578,0.01162531791876107,10.988854165421715,0.5880118171835391
103.0,20.861574841182183,0.6268020602476,0.011621728942541244,10.988441915708064,0.5880164043397543
104.0,20.865090403270905,0.6269550082211761,0.011618140095453233,10.988029688404314,0.5880208986420516
105.0,20.868605739733212,0.6271079442833172,0.011614551377504861,10.987617483591197,0.5880252093012597
106.0,20.872120849721213,0.6272608683811307,0.011610962788707562,10.987205301349498,0.5880294050882519
107.0,20.875635732386215,0.6274137804616985,0.011607374329076287,10.986793141760042,0.5880334606194635
108.0,20.879150386878692,0.6275666804720774,0.01160378599862958,10.986381004903713,0.5880373459251628
109.0,20.882664812348292,0.6277195683593001,0.011600197797389458,10.985968890861436,0.5880411745290968
110.0,20.886179007943852,0.6278724440703786,0.011596609725381356,10.985556799714193,0.5880450801806022
111.0,20.889692972813364,0.6280253075522975,0.01159302178263421,10.985144731543006,0.5880489051582666
112.0,20.89320670610402,0.628178158752016,0.011589433969180342,10.984732686428954,0.5880527636423963
113.0,20.896720206962186,0.6283309976164739,0.01158584628505546,10.984320664453154,0.58805672045521
114.0,20.90023347453339,0.6284838240925817,0.011582258730298675,10.983908665696784,0.5880607323474223
115.0,20.90374650796235,0.6286366381272327,0.011578671304952453,10.983496690241061,0.5880648040896824
116.0,20.90725930639295,0.6287894396672891,0.011575084009062656,10.983084738167253,0.5880689364249133
117.0,20.91077186896829,0.6289422286595966,0.011571496842678528,10.982672809556677,0.5880729594194212
118.0,20.914284194830593,0.6290950050509717,0.011567909805852705,10.982260904490696,0.5880768351208056
119.0,20.917796283121298,0.6292477687882093,0.011564322898641207,10.98184902305072,0.5880805921177872
120.0,20.92130813298101,0.6294005198180815,0.011560736121103499,10.981437165318212,0.588084196442107
121.0,20.924819743549516,0.6295532580873371,0.011557149473302563,10.981025331374676,0.5880882985494233
122.0,20.928331113965783,0.6297059835426997,0.011553562955304787,10.980613521301665,0.5880931120715249
123.0,20.93184224336796,0.6298586961308721,0.01154997656718021,10.980201735180783,0.588097959667619
124.0,20.935353130893365,0.6300113957985314,0.01154639030900241,10.979789973093673,0.5881019542283762
125.0,20.938863775678506,0.630164082492333,0.011542804180848736,10.979378235122036,0.5881057991378539
126.0,20.94237417685907,0.6303167561589117,0.011539218180930462,10.978966521347592,0.5881095019140307
127.0,20.945884333569914,0.6304694167448726,0.011535632308550916,10.978554831852108,0.5881132588237693
128.0,20.949394244945097,0.6306220641968042,0.0115320465639411,10.978143166717391,0.5881169009370645
129.0,20.952903910117833,0.6307746984612687,0.011528460947338857,10.977731526025302,0.5881204399495705
130.0,20.956413328220535,0.6309273194848096,0.011524875458988686,10.977319909857743,0.5881241067875064
131.0,20.959922498384785,0.6310799272139406,0.011521290099141667,10.976908318296662,0.5881279302419056
132.0,20.963431419741365,0.6312325215951584,0.011517704868055164,10.976496751424058,0.5881320015631526
133.0,20.966940091420206,0.6313851025749379,0.011514119765992818,10.97608520932197,0.5881352077781322
134.0,20.97044851255047,0.6315376700997261,0.011510534793224194,10.975673692072487,0.588137802088229
135.0,20.973956682260443,0.6316902241159535,0.011506949949327806,10.975262199757745,0.588140771319099
136.0,20.97746459967764,0.6318427645700226,0.011503365233490052,10.97485073245992,0.5881437890068982
137.0,20.980972263928738,0.6319952914083176,0.011499780646112127,10.974439290261241,0.5881494200971693
138.0,20.9844796741396,0.6321478045771994,0.011496196187601676,10.974027873243976,0.5881528062502261
139.0,20.987986829435272,0.6323003040230071,0.011492611858372276,10.973616481490442,0.5881557563098117
140.0,20.99149372893998,0.6324527896920568,0.011489027658842764,10.973205115083001,0.5881584713386555
141.0,20.995000371777156,0.6326052615306429,0.011485443589436836,10.972793774104058,0.5881609458653128
142.0,20.99850675706937,0.63275771948504,0.01148185965058236,10.972382458636067,0.5881628060591777
143.0,21.002012883938423,0.6329101635014941,0.011478275842710935,10.971971168761522,0.5881649152684428
144.0,21.005518751505278,0.6330625935262391,0.011474692144724786,10.971559904561953,0.588169276067955
145.0,21.009024358890084,0.6332150095054779,0.011471108560701911,10.97114866611914,0.5881724509557915
146.0,21.012529705212188,0.6333674113854005,0.011467525108213703,10.970737453515724,0.5881754722796838
147.0,21.016034789590087,0.6335197991121677,0.011463941787734208,10.97032626683439,0.5881782907984512
148.0,21.019539611141518,0.6336721726319222,0.011460358591170667,10.969915106157796,0.588181323717586
149.0,21.023044168983354,0.6338245318907872,0.011456775488186082,10.969503971568082,0.5881848815188467
150.0,21.02654846223169,0.6339768768348614,0.011453192512719293,10.969092863148102,0.5881880731683705
151.0,21.030052490001786,0.6341292074102208,0.011449609665458702,10.968681780980754,0.5881907791565277
152.0,21.0335562514081,0.634281523562925,0.011446026947099201,10.968270725148976,0.588193067910337
153.0,21.037059745564264,0.634433825239011,0.011442444358341462,10.967859695735749,0.5881951447514256
154.0,21.040562971583114,0.6345861123844907,0.011438861882129567,10.967448692823634,0.5881968643239938
155.0,21.044065928576664,0.6347383849453606,0.011435279526193321,10.967037716495396,0.5881985291454569
156.0,21.047568615656118,0.634890642867593,0.011431697300708005,10.966626766834082,0.5882006506448099
157.0,21.05107103193187,0.635042886097139,0.011428115205434698,10.966215843922738,0.588202855368101
158.0,21.0545731765135,0.6351951145799339,0.011424533215422337,10.965804947843171,0.5882049638638314
159.0,21.058075048509775,0.6353473282618823,0.011420951358057447,10.965394078678562,0.5882083440303816
160.0,21.061576647028648,0.6354995270888788,0.01141736963411977,10.964983236512126,0.5882129456408873
161.0,21.065077971177274,0.6356517110067922,0.011413788044386626,10.964572421427125,0.5882162851300661
162.0,21.06857902006198,0.635803879961469,0.011410206589631655,10.96416163350686,0.5882193644536713
163.0,21.07207979278831,0.635956033898742,0.01140662527062386,10.96375087283467,0.5882216279439466
164.0,21.07558028846096,0.6361081727644169,0.01140304408812645,10.963340139493939,0.5882231014512932
165.0,21.079080506183846,0.6362602965042824,0.01139946304289587,10.962929433568087,0.5882251876084024
166.0,21.08258044506008,0.636412405064107,0.011395882131246274,10.962518755140467,0.5882273835265325
167.0,21.086080104191943,0.6365644983896374,0.011392301326276793,10.962108104293776,0.5882295018574779
168.0,21.089579482680918,0.6367165764266024,0.011388720659362396,10.96169748111156,0.5882316882301916
169.0,21.093078579627687,0.6368686391207085,0.011385140120859864,10.961286885676964,0.5882340011260089
170.0,21.09657739413211,0.6370206864176469,0.01138155969802044,10.960876318072692,0.588236204696626
171.0,21.100075925293254,0.6371727182630824,0.011377979413292976,10.96046577838244,0.5882383207168687
172.0,21.103574172209363,0.6373247346026635,0.011374399267468258,10.960055266689945,0.5882404694841386
173.0,21.107072133977887,0.6374767353820219,0.011370819261325847,10.959644783078986,0.5882425695235224
174.0,21.11056980969547,0.6376287205467648,0.011367239393994621,10.959234327633375,0.5882446103792097
175.0,21.114067198457946,0.6377806900424824,0.011363659665314222,10.95882390043697,0.5882466308493967
176.0,21.11756429936034,0.6379326438147451,0.011360080076033835,10.958413501573663,0.5882486629980342
177.0,21.121061111496893,0.6380845818091037,0.011356500610442594,10.958003131126864,0.5882507681732263
178.0,21.124557633960997,0.6382365039710894,0.011352921272269324,10.957592789180127,0.5882529894332695
179.0,21.128053865845292,0.6383884102462167,0.01134934207598902,10.957182475817486,0.5882552956383725
180.0,21.131549806241576,0.6385403005799762,0.011345763022325912,10.956772191123017,0.588257823690874
181.0,21.135045454240856,0.6386921749178439,0.011342184111977106,10.956361935180835,0.588260423974135
182.0,21.138540808933346,0.6388440332052748,0.011338605341479803,10.95595170807511,0.5882631903852914
183.0,21.14203586940844,0.6389958753877055,0.011335026711607249,10.95554150989005,0.5882657661499054
184.0,21.145530634754728,0.6391477014105524,0.01133144822312332,10.955131340709906,0.588268168791233
185.0,21.149025104060012,0.6392995112192172,0.011327869876782309,10.95472120061897,0.5882710828174295
186.0,21.152519276411287,0.6394513047590763,0.011324291673328605,10.954311089701566,0.5882739157302551
187.0,21.156013150894736,0.639603081975494,0.011320713613381177,10.953901008042072,0.5882765938364195
188.0,21.159506726595744,0.6397548428138121,0.011317135697568386,10.953490955724895,0.5882792420763306
189.0,21.163000002598906,0.6399065872193542,0.011313557926614808,10.953080932834489,0.5882819401175099
190.0,21.166492977988007,0.6400583151374293,0.011309980301233898,10.952670939455347,0.5882847093241128
191.0,21.169985651846016,0.6402100265133203,0.011306402822127972,10.952260975671997,0.5882876267629973
192.0,21.17347802325512,0.640361721292302,0.01130282547417607,10.951851041568561,0.5882906393922868
193.0,21.176970091296702,0.6405133994196212,0.011299248253363543,10.951441137229066,0.588293791505336
194.0,21.180461855051323,0.6406650608405157,0.011295671179242083,10.951031262738125,0.5882967025613439
