k,PSNR,SSIM,mse,Log-Gradient,Angle
0.0,20.40151524029995,0.5059242033487106,0.0,10.98428340752713,0.5811629336451424
1.0,20.404558312113537,0.5060662127089154,0.010121850298949842,10.98389135028966,0.5938697295007421
2.0,20.408115240094244,0.5062367913094199,0.01199067416237608,10.983438502139856,0.5940153153503386
3.0,20.411699221673395,0.5064093111578738,0.01212550711858112,10.982982531487957,0.5940755175142766
4.0,20.415284695031843,0.5065820244627265,0.012137398004256072,10.982526378181383,0.5940870315207948
5.0,20.418869155828393,0.5067547360019765,0.012133877437161891,10.982070333677587,0.5941003598168278
6.0,20.422452130151314,0.5069274056071085,0.012126788640251088,10.981614454216706,0.5941151900659908
7.0,20.426033492799927,0.5071000229586927,0.012118599452038751,10.981158754989051,0.5941255374588936
8.0,20.429613204628723,0.507272584660987,0.01211001072239995,10.980703241190133,0.5941360951846842
9.0,20.433191250425903,0.507445089163166,0.012101217085507725,10.98024791545969,0.5941421288008202
10.0,20.436767623287643,0.5076175357735457,0.012092328340829666,10.979792778997762,0.5941480635614885
11.0,20.44034231951899,0.5077899241380138,0.01208339083332141,10.97933783247296,0.5941559841836185
12.0,20.443915336804164,0.5079622540149578,0.012074418651303164,10.978883076383156,0.5941634403232622
13.0,20.447486673737117,0.5081345252149262,0.01206542603810449,10.978428511092966,0.5941712841935635
14.0,20.451056329340133,0.5083067375941797,0.012056419769899766,10.977974136838418,0.5941792961180162
15.0,20.45462430290542,0.5084788910377182,0.01204740205858462,10.97751995381434,0.5941872646038111
16.0,20.45819059396433,0.5086509854530495,0.012038383724631316,10.977065962133516,0.5941950319765404
17.0,20.461755202135123,0.5088230207587742,0.012029363483749427,10.976612161895867,0.594202824195427
18.0,20.465318126996273,0.508994996865244,0.012020337520173804,10.976158553235043,0.5942108336245738
19.0,20.46887936829648,0.5091669137021203,0.0120113127178504,10.975705136240709,0.5942192479605893
20.0,20.47243892581152,0.5093387712006586,0.012002292070024373,10.975251910979063,0.5942277746305915
21.0,20.47599679926206,0.5095105692887757,0.011993272821346749,10.974798877516237,0.5942363212942395
22.0,20.479552988425457,0.5096823078975797,0.011984256624720262,10.974346035921206,0.5942447553093313
23.0,20.48310749310014,0.5098539869618465,0.011975246109662165,10.973893386225743,0.5942532299812225
24.0,20.48666031308467,0.5100256064143097,0.011966241243071525,10.973440928476213,0.5942616699862954
25.0,20.490211448163194,0.5101971661850749,0.011957241253888008,10.972988662727058,0.5942700032202822
26.0,20.493760898120893,0.5103686662059891,0.011948245869828695,10.97253658902557,0.5942784529465799
27.0,20.497308662763697,0.5105401064105037,0.011939254437969967,10.972084707432325,0.5942871108687487
28.0,20.500854741902987,0.5107114867324273,0.011930268413380355,10.971633017995744,0.5942956273012285
29.0,20.504399135351772,0.5108828071057278,0.0119212881922979,10.97118152076146,0.5943041541896296
30.0,20.507941842924573,0.5110540674645447,0.011912313784071845,10.970730215774626,0.5943126880628533
31.0,20.51148286443744,0.5112252677431668,0.011903345195658464,10.970279103079985,0.5943211694400571
32.0,20.515022199707843,0.511396407876021,0.011894382432060693,10.969828182721898,0.5943295608543927
33.0,20.51855984855472,0.5115674877976919,0.011885425471766707,10.969377454744485,0.5943379541462147
34.0,20.52209581079841,0.511738507442907,0.011876473764733025,10.968926919194185,0.5943463574052009
35.0,20.52563008626064,0.5119094667465243,0.011867527283164888,10.968476576115073,0.5943547833017139
36.0,20.529162674764546,0.5120803656435573,0.011858586395963452,10.968026425550997,0.5943631593091913
37.0,20.532693576134605,0.5122512040691369,0.011849651292995918,10.967576467544788,0.5943716611670397
38.0,20.536222790196685,0.5124219819585548,0.011840721990246666,10.967126702138966,0.5943801241534293
39.0,20.539750316778008,0.5125926992472243,0.01183179848731296,10.96667712937581,0.5943885342205573
40.0,20.54327615570714,0.5127633558706998,0.011822880735926999,10.966227749297476,0.5943969488129413
41.0,20.546800306814006,0.512933951764671,0.011813968394566261,10.9657785619466,0.5944052540714198
42.0,20.55032276992986,0.5131044868649548,0.011805061851490469,10.965329567364767,0.5944134689157301
43.0,20.553843544887304,0.513274961107517,0.011796161105178163,10.964880765593353,0.5944216793926996
44.0,20.557362631520277,0.513445374428443,0.01178726615386223,10.964432156673528,0.594429946706112
45.0,20.56088002965604,0.5136157267629636,0.011778376801016703,10.963983740646448,0.5944382590332398
46.0,20.564395739126304,0.5137860180468133,0.011769493113664703,10.963535517552975,0.5944465133886347
47.0,20.567909759769346,0.5139562482165123,0.011760615214746922,10.963087487433667,0.5944545799707187
48.0,20.57142209142477,0.5141264172087305,0.011751743102162747,10.962639650328885,0.5944624827760853
49.0,20.574932733933515,0.5142965249602587,0.011742876773686505,10.962192006278812,0.5944702800136118
50.0,20.57844168713786,0.5144665714080238,0.01173401622698444,10.96174455532344,0.5944780556321195
51.0,20.581948950881426,0.5146365564890933,0.011725161459629518,10.961297297502583,0.5944858938191622
52.0,20.585454525009133,0.514806480140657,0.011716312469114053,10.960850232855872,0.5944936712422012
53.0,20.58895840936726,0.5149763423000483,0.011707469252860928,10.960403361422761,0.5945014100835624
54.0,20.592460603803406,0.5151461429047409,0.01169863180823332,10.959956683242526,0.5945090911141556
55.0,20.59596110816651,0.5153158818923255,0.011689800132543253,10.959510198354264,0.5945177605673297
56.0,20.599459922306824,0.5154855592005405,0.011680974223059273,10.9590639067969,0.59452393091754
57.0,20.60295704607594,0.5156551747672462,0.011672154077013205,10.95861780860918,0.5945315392948823
58.0,20.60645247932678,0.5158247285304528,0.01166333969160619,10.95817190382968,0.5945388983757929
59.0,20.609946221913592,0.5159942204282926,0.011654530816144818,10.95772619249551,0.5945464973509741
60.0,20.613438273691933,0.516163650399036,0.011645727479786686,10.957280674644199,0.5945542932307762
61.0,20.61692863451873,0.5163330183810885,0.01163692977050379,10.956835350313481,0.5945626110032306
62.0,20.620417304252186,0.5165023243129893,0.011628137816386438,10.956390219541253,0.5945709278593593
63.0,20.62390428275187,0.5166715681334155,0.01161935161507775,10.955945282365237,0.5945793137248662
64.0,20.627389569878652,0.5168407497811681,0.0116105711642082,10.955500538822985,0.5945874419827104
65.0,20.630873165494748,0.5170098691951929,0.01160179646139822,10.955055988951884,0.5945953238323708
66.0,20.634355069463695,0.5171789263145649,0.011593027504260235,10.954611632789145,0.5946030290453826
67.0,20.63783528165034,0.5173479210784966,0.011584264290400903,10.954167470371816,0.5946105119222724
68.0,20.641313801920877,0.5175168534263394,0.011575506817423043,10.953723501736775,0.5946179059621336
69.0,20.644790630142822,0.5176857232975643,0.011566755082927246,10.953279726920726,0.5946251590025672
70.0,20.648265766185013,0.5178545306317932,0.011558009084513439,10.952836145960212,0.5946323480821216
71.0,20.65173920991761,0.5180232753687761,0.011549268819782315,10.952392758891603,0.5946394500851551
72.0,20.65521096121211,0.5181919574483985,0.011540534286336395,10.951949565751102,0.5946471235323973
73.0,20.658681019941326,0.5183605768106756,0.011531805481781229,10.951506566574741,0.594655757641074
74.0,20.662149385979394,0.5185291333957656,0.011523082403726273,10.95106376139839,0.594664413904905
75.0,20.665616059201774,0.5186976271439633,0.011514365049785766,10.950621150257746,0.5946730738426265
76.0,20.669081039485263,0.5188660579956841,0.011505653417579599,10.950178733188338,0.5946815033477698
77.0,20.67254432670797,0.5190344258914912,0.01149694750473376,10.94973651022553,0.5946894743697687
78.0,20.676005920749333,0.519202730772084,0.01148824730888116,10.949294481404516,0.5946974242002946
79.0,20.679465821490112,0.5193709725782868,0.011479552827661938,10.948852646760324,0.5947056641618528
80.0,20.682924028812387,0.5195391512510708,0.01147086405872407,10.948411006327811,0.5947144785553659
81.0,20.68638054259957,0.519707266731534,0.011462180999723695,10.94796956014167,0.5947229514916484
82.0,20.689835362736382,0.5198753189609109,0.011453503648325399,10.947528308236421,0.5947307533019308
83.0,20.693288489108884,0.5200433078805762,0.011444832002202527,10.947087250646419,0.5947380818066851
84.0,20.696739921604443,0.520211233432039,0.011436166059037361,10.946646387405853,0.5947449890751965
85.0,20.70018966011176,0.5203790955569264,0.01142750581652139,10.946205718548741,0.5947527310510652
86.0,20.703637704520848,0.5205468941970338,0.011418851272355252,10.945765244108934,0.5947599424029787
87.0,20.707084054723055,0.5207146292942727,0.011410202424249016,10.945324964120113,0.5947668865526149
88.0,20.71052871061103,0.5208823007906822,0.011401559251869631,10.944884878615635,0.5947735221202849
89.0,20.713971672078767,0.5210499086284538,0.011392921729308385,10.944444987628483,0.5947806098127397
90.0,20.717412939021557,0.5212174527499092,0.011384289895946639,10.94400529119183,0.5947878214016852
91.0,20.720852511336027,0.5213849330975048,0.011375663749587395,10.943565789338688,0.5947948526323904
92.0,20.724290388919705,0.5215523496137467,0.011367043234627483,10.943126482101952,0.5948016194396343
93.0,20.727726571671777,0.5217197022413516,0.011358428388783655,10.942687369514305,0.59480900716954
94.0,20.73116105949285,0.5218869909231971,0.0113498192246775,10.942248451608245,0.5948168083482667
95.0,20.734593852284885,0.5220542156022779,0.011341215740161559,10.941809728416105,0.5948238421609277
96.0,20.738024949951132,0.522221376221747,0.011332617933094325,10.941371199970042,0.5948295650100298
97.0,20.74145435239616,0.5223884727248795,0.011324025801340011,10.940932866302056,0.5948367551668184
98.0,20.744882059525874,0.5225555050550902,0.011315439342768392,10.940494727443966,0.5948441034544486
99.0,20.74830807124748,0.5227224731559194,0.011306858555254517,10.94005678342743,0.5948511927192167
100.0,20.751732387469502,0.5228893769710664,0.01129828343667856,10.939619034283938,0.5948583552932829
101.0,20.755155008101788,0.5230562164443534,0.011289713984925374,10.939181480044805,0.5948655205602184
102.0,20.758575933055496,0.5232229915197292,0.011281150197884367,10.938744120741182,0.594872868255044
103.0,20.7619951622431,0.5233897021412953,0.011272592073449182,10.938306956404054,0.594880072881853
104.0,20.765412695578384,0.5235563482532826,0.01126403960951727,10.93786998706423,0.5948870515304575
105.0,20.768828532976464,0.5237229298000544,0.011255492803989598,10.937433212752355,0.5948937527262772
106.0,20.772242674353755,0.5238894467261214,0.011246951654770417,10.936996633498904,0.5949002888505901
107.0,20.77565511962799,0.524055898976115,0.011238416159766718,10.936560249334182,0.5949068657491862
108.0,20.779065868718224,0.5242222864948126,0.01122988631372687,10.936124060288314,0.5949135745748123
109.0,20.78247492154481,0.5243886092271333,0.011221362113629329,10.935688066391249,0.5949202500219912
110.0,20.78588227802943,0.5245548671181263,0.011212843557433747,10.935252267672762,0.5949268419560337
111.0,20.78928793809508,0.5247210601129696,0.011204330643106764,10.934816664162467,0.5949329866183746
112.0,20.792691901666043,0.5248871881569911,0.011195823368621212,10.934381255889802,0.5949420952009965
113.0,20.796094168667953,0.5250532511956497,0.011187321731956065,10.933946042884042,0.5949498332796347
114.0,20.79949473902773,0.5252192491745371,0.0111788257310957,10.933511025174287,0.5949574339390716
115.0,20.802893612673614,0.5253851820393934,0.011170335364029522,10.93307620278947,0.594965033043256
116.0,20.806290789535158,0.5255510497360795,0.011161850628751552,10.932641575758359,0.5949728240058715
117.0,20.809686269543228,0.5257168522106029,0.011153371523259898,10.932207144109547,0.5949808884120892
118.0,20.81308005262999,0.5258825894091083,0.01114489804477955,10.93177290787146,0.5949896020627982
119.0,20.816472138728933,0.5260482612778744,0.011136430187756306,10.931338867072329,0.5949994329623176
120.0,20.819862527774863,0.52621386776332,0.011127967948421474,10.930905021740204,0.5950096429769577
121.0,20.82325121970388,0.5263794088119979,0.011119511324817635,10.93047137190297,0.595017525675369
122.0,20.826638214453403,0.5265448843705971,0.01111106031499393,10.930037917588338,0.5950255071614915
123.0,20.830023511962157,0.5267102943859486,0.011102614917005944,10.929604658823855,0.5950333115051495
124.0,20.83340711217019,0.5268756388050179,0.011094175128914899,10.929171595636895,0.5950406629996453
125.0,20.836789015018837,0.5270409175748997,0.011085740948787262,10.928738728054663,0.5950474106786606
126.0,20.84016922045077,0.5272061306428347,0.011077312374694214,10.928306056104201,0.5950540929272887
127.0,20.84354772840993,0.5273712779562058,0.011068889404711155,10.927873579812378,0.5950609005006419
128.0,20.84692453884163,0.5275363594625232,0.011060472036917108,10.927441299205896,0.5950680119185185
129.0,20.850299651692424,0.5277013751094408,0.011052060269394244,10.927009214311287,0.5950750971783704
130.0,20.853673066910222,0.5278663248447443,0.011043654100227372,10.926577325154918,0.5950820796152659
131.0,20.857044784444213,0.5280312086163609,0.01103525352750338,10.926145631762985,0.5950891739331347
132.0,20.860414804244915,0.5281960263723557,0.011026858549310722,10.925714134161522,0.5950964103093518
133.0,20.86378312626415,0.5283607780609297,0.011018469163738836,10.925282832376386,0.595103483520923
134.0,20.86714975045502,0.5285254636304156,0.01101008536887781,10.924851726433275,0.5951103038529896
135.0,20.870514676771986,0.5286900830292963,0.011001707162817601,10.924420816357717,0.5951169794853339
136.0,20.873877905170765,0.5288546362061837,0.010993334523711384,10.923990102174038,0.5951235609684815
137.0,20.877239435608367,0.5290191231098174,0.01098496744678147,10.923559583906716,0.5951301108910116
138.0,20.880599268043156,0.5291835436890926,0.010976605951854724,10.92312926158078,0.5951365679207397
139.0,20.883957402434778,0.5293478978930275,0.010968250037030934,10.922699135221093,0.5951430974242221
140.0,20.88731383874422,0.5295121856708019,0.010959899700407798,10.922269204852347,0.5951495415780516
141.0,20.890668576933756,0.529676406971706,0.010951554940080505,10.921839470499071,0.5951558710610324
142.0,20.894021616966967,0.5298405617451926,0.01094321575414114,10.92140993218563,0.59516242522588
143.0,20.897372958808727,0.5300046499408324,0.010934882140678531,10.920980589936217,0.5951690125736511
144.0,20.90072260242524,0.5301686715083447,0.0109265540977774,10.920551443774865,0.5951753517953183
145.0,20.90407054778399,0.5303326263975882,0.010918231623518132,10.920122493725435,0.5951812785320841
146.0,20.90741679485378,0.530496514558553,0.010909914715976347,10.919693739811628,0.5951865305461741
147.0,20.91076134360472,0.5306603359413705,0.010901603373222301,10.919265182056975,0.5951940165815827
148.0,20.914104194008203,0.5308240904963131,0.010893297593320568,10.918836820484843,0.5952012717304945
149.0,20.91744534603695,0.5309877781737854,0.010884997374329618,10.918408655118435,0.5952088132836328
150.0,20.92078479966496,0.5311513989243329,0.010876702706650317,10.917980685980393,0.5952162307288098
151.0,20.924122554867566,0.5313149526986417,0.01086841357257231,10.917552913092418,0.595224285729263
152.0,20.927458611621365,0.5314784394475255,0.010860129992358697,10.917125336477218,0.5952322729651693
153.0,20.93079296990421,0.5316418591219485,0.010851851909676627,10.91669795615608,0.5952399688072055
154.0,20.934125629695085,0.5318052116729514,0.01084357930529555,10.91627077215,0.5952473802286492
155.0,20.93745659097456,0.5319684970517867,0.010835312248948212,10.91584378448124,0.5952546815453216
156.0,20.94078585372447,0.5321317152098283,0.010827050738784254,10.915416993171892,0.5952628274551202
157.0,20.944113417927973,0.5322948660985983,0.010818794772943412,10.914990398243887,0.5952676260597142
158.0,20.947439283569512,0.5324579496697514,0.01081054434797207,10.914563999719006,0.5952754649007095
159.0,20.95076345063483,0.5326209658750877,0.010802299459710788,10.914137797618835,0.5952838603269721
160.0,20.954085919110987,0.5327839146665269,0.010794060078657595,10.913711791963625,0.595291961167624
161.0,20.9574066889863,0.5329467959961468,0.010785826229095593,10.913285982774674,0.5952994733597124
162.0,20.960725760250412,0.5331096098161585,0.010777597909122916,10.912860370073117,0.5953063945777466
163.0,20.964043132894258,0.5332723560788967,0.010769375116830085,10.912434953879927,0.5953129301846606
164.0,20.967358806910056,0.5334350347368535,0.010761157850299866,10.91200973421591,0.5953194845094169
165.0,20.97067278229133,0.5335976457426496,0.010752946107607023,10.911584711101716,0.5953259466580462
166.0,20.9739850590329,0.5337601890490448,0.01074473988681831,10.911159884557822,0.5953322271974767
167.0,20.977295637130865,0.5339226646089333,0.010736539185992109,10.91073525460455,0.5953383352635783
168.0,20.980604516582634,0.5340850723753522,0.010728344003178503,10.910310821262055,0.5953441909159708
169.0,20.983911697386898,0.5342474123014779,0.01072015431023672,10.909886584549868,0.5953475971608473
170.0,20.98721717954364,0.534409684340616,0.010711970121949651,10.909462544487663,0.5953548219878643
171.0,20.990520963054138,0.5345718884462181,0.010703791445890459,10.909038701095112,0.5953598004334169
172.0,20.99382304792096,0.5347340245718748,0.010695618280103788,10.908615054391722,0.595364369463383
173.0,20.99712343414795,0.5348960926713001,0.0106874506226254,10.908191604396846,0.5953686868638808
174.0,21.000422121740264,0.5350580926983625,0.010679288471482024,10.907768351129663,0.5953727777054426
175.0,21.003719110704328,0.5352200246070634,0.010671131824691569,10.907345294609199,0.5953766992301435
176.0,21.007014401047858,0.5353818883515316,0.01066298068026323,10.90692243485431,0.5953806200243758
177.0,21.010307992779857,0.5355436838860471,0.010654835004872921,10.906499771883855,0.5953853606363708
178.0,21.013599885910615,0.5357054111650242,0.010646694826934209,10.906077305716368,0.5953900020436814
179.0,21.016890080451702,0.535867070142999,0.010638560145637462,10.905655036370213,0.5953957199536853
180.0,21.020178576415983,0.5360286607746697,0.010630430958983281,10.905232963863593,0.595401723244224
181.0,21.02346537381759,0.5361901830148611,0.010622307264964026,10.904811088214545,0.5954074895536171
182.0,21.026750472671942,0.5363516368185295,0.010614189061564206,10.904389409440945,0.5954133518770696
183.0,21.030033872995737,0.5365130221407691,0.010606076317178078,10.903967927559995,0.595419440958007
184.0,21.03331557480697,0.5366743389368182,0.010597969036811091,10.903546642588863,0.5954255131519692
185.0,21.03659557812488,0.5368355871620517,0.0105898672400241,10.90312555454493,0.5954314184728942
186.0,21.039873882970003,0.536996766771969,0.010581770924795546,10.90270466344542,0.5954375745249035
187.0,21.04315048936416,0.5371578777222267,0.010573680089097821,10.902283969307383,0.5954438016559704
188.0,21.04642539733043,0.5373189199685963,0.010565594730897673,10.901863472147717,0.5954502519965534
189.0,21.049698606893177,0.5374798934669986,0.010557514848156053,10.90144317198315,0.5954565856847908
190.0,21.052970118078026,0.5376407981734995,0.010549440438828508,10.901023068830249,0.595462801898987
191.0,21.05623993091188,0.5378016340442747,0.010541371500865511,10.900603162705414,0.5954689304318515
192.0,21.059508045422927,0.5379624010356613,0.010533308032212299,10.900183453624885,0.5954743943708716
193.0,21.062774461640593,0.538123099104121,0.010525250030809423,10.89976394160474,0.5954801081981994
194.0,21.066039179595606,0.5382837282062504,0.010517197494592626,10.899344626660888,0.5954873080090537
