k,PSNR,SSIM,mse,Log-Gradient,Angle
0.0,20.40151524029995,0.5059242033487106,0.0,10.98428340752713,0.5811629336451424
1.0,20.40455923401598,0.5060662557330706,0.010124916411362993,10.9838912315095,0.593869731896789
2.0,20.40811816154857,0.5062369290525287,0.011997328527143627,10.983438127352503,0.5940153048707963
3.0,20.41170522863656,0.5064095959238244,0.01213581611203595,10.982981762483647,0.5940755311640888
4.0,20.415294873962964,0.5065825086310082,0.012151374552146056,10.982525076666777,0.5940870194409097
5.0,20.418884592933857,0.5067554719685957,0.012151521589880334,10.982068361364018,0.5941003735208193
6.0,20.42247391124195,0.5069284457724182,0.012148097607412206,10.981611672837305,0.5941152363966627
7.0,20.42606270325159,0.5071014197241271,0.012143569528986061,10.981155026303641,0.5941256908230438
8.0,20.429650929369615,0.5072743904279636,0.012138637850004649,10.980698426986915,0.5941361941432562
9.0,20.433238573930392,0.5074473563324646,0.012133497069723356,10.980241877556304,0.5941423024709244
10.0,20.436825629572898,0.5076203167449819,0.012128256909514561,10.97978537924181,0.594148252943803
11.0,20.440412092142456,0.5077932713101899,0.012122963667507324,10.979328932742424,0.5941561478334211
12.0,20.443997958861594,0.5079662197850955,0.012117631426095694,10.978872538586662,0.5941636433205241
13.0,20.447583227860754,0.5081391619786789,0.012112274407292688,10.978416197170086,0.5941715242941934
14.0,20.451167897696976,0.5083120977454473,0.012106899381034947,10.977959908759926,0.5941795707869806
15.0,20.454751967195747,0.508485026968502,0.01210150855821405,10.977503673582419,0.5941875821799089
16.0,20.458335435420114,0.5086579495532969,0.012096112743530063,10.977047491781965,0.5941953899316849
17.0,20.461918301518715,0.5088308654162439,0.012090710662764159,10.976591363490261,0.5942032310873712
18.0,20.46550056459886,0.5090037744653417,0.012085298509102503,10.976135288872895,0.594211270373007
19.0,20.469082223936653,0.5091766766277601,0.012079883145200627,10.97567926805175,0.5942197383502331
20.0,20.47266327883388,0.5093495718321315,0.012074467565626374,10.97522330112537,0.5942283066317641
21.0,20.47624372853583,0.5095224600035874,0.012069049033224482,10.97476738819237,0.5942368966321361
22.0,20.479823572343008,0.5096953410703183,0.01206362918290541,10.974311529354454,0.5942453820468644
23.0,20.483402809575615,0.5098682149640524,0.012058210649424058,10.9738557246762,0.5942539241392238
24.0,20.486981439552643,0.5100410816143119,0.012052793403289044,10.973399974237047,0.5942624199320328
25.0,20.490559461577167,0.5102139409478518,0.012047376674654017,10.972944278124631,0.5942708275704495
26.0,20.494136874951995,0.5103867928930378,0.012041960205569819,10.972488636419525,0.5942793401282968
27.0,20.497713678999204,0.510559637379687,0.012036543333340158,10.972033049215893,0.594288061371603
28.0,20.501289873044996,0.5107324743378381,0.012031127512089826,10.971577516595882,0.5942966450991798
29.0,20.50486545641575,0.5109053036975472,0.012025713142424028,10.971122038638992,0.5943052486349019
30.0,20.508440428438007,0.5110781253888991,0.012020300236176236,10.970666615424417,0.5943138553419952
31.0,20.51201478843843,0.5112509393419852,0.012014888802792107,10.970211247031104,0.5943224093991616
32.0,20.51558853574374,0.5114237454868901,0.012009478849767894,10.969755933537785,0.5943308738499052
33.0,20.51916166968069,0.5115965437537305,0.012004070359853831,10.969300675023115,0.5943393596717337
34.0,20.52273418957608,0.5117693340726052,0.011998662788728192,10.968845471568217,0.5943478634136606
35.0,20.52630609475671,0.5119421163736091,0.011993256105745451,10.96839032325206,0.5943563583541309
36.0,20.529877384549373,0.5121148905868574,0.01198785068394956,10.967935230153536,0.5943648529109505
37.0,20.53344805828086,0.5122876566424365,0.011982446715135377,10.967480192350678,0.5943734532316567
38.0,20.537018115277945,0.5124604144704544,0.011977044217142532,10.967025209921374,0.5943819700554369
39.0,20.540587554867372,0.5126331640009889,0.01197164319207181,10.966570282943442,0.5943904826658675
40.0,20.544156376375852,0.5128059051641346,0.011966243603935191,10.966115411494721,0.5943989827186986
41.0,20.547724579130062,0.5129786378899673,0.011960845096925195,10.965660595653732,0.5944073573629681
42.0,20.551292162456644,0.5131513621085653,0.011955448068792014,10.965205835498095,0.5944156636457598
43.0,20.554859125682206,0.5133240777499962,0.011950052520519186,10.96475113110538,0.5944239960493578
44.0,20.55842546813329,0.5134967847443154,0.011944658452844,10.96429648255313,0.5944324001173285
45.0,20.561991189128605,0.5136694830206051,0.011939265677718747,10.96384188991902,0.5944408149389275
46.0,20.56555628798954,0.5138421725082705,0.01193387425538598,10.963387353280616,0.5944491195458638
47.0,20.56912076404286,0.5140148531373726,0.011928484314592563,10.962932872715331,0.5944572418503394
48.0,20.572684616615287,0.5141875248379872,0.01192309585573951,10.962478448300557,0.5944652237062177
49.0,20.576247845033482,0.5143601875401796,0.01191770887910172,10.962024080113663,0.5944731079587692
50.0,20.57981044862409,0.5145328411739923,0.011912323384845281,10.961569768232001,0.5944810350184574
51.0,20.583372426713712,0.514705485669482,0.011906939373041932,10.961115512732905,0.5944889419677767
52.0,20.586933778628907,0.5148781209566943,0.011901556843681929,10.96066131369369,0.5944968476445737
53.0,20.590494503696185,0.5150507469656554,0.01189617579668503,10.960207171191664,0.5945046870642362
54.0,20.59405460124202,0.5152233636264008,0.01189079623191017,10.959753085304117,0.5945125253160657
55.0,20.59761407059286,0.5153959708689543,0.011885418149164266,10.959299056108327,0.5945195445661856
56.0,20.6011729110751,0.5155685686233358,0.01188004154820955,10.95884508368156,0.5945275853056659
57.0,20.6047311220151,0.5157411568195562,0.011874666428770548,10.958391168101075,0.5945351682577795
58.0,20.608288702739173,0.5159137353876243,0.01186929279053986,10.957937309444121,0.5945427223701311
59.0,20.61184565257362,0.5160863042575418,0.011863920412951805,10.957483507786764,0.5945506361050849
60.0,20.615401970844687,0.51625886335931,0.011858549293495651,10.957029763205462,0.5945588342159871
61.0,20.61895765687858,0.5164314126229107,0.011853179515427636,10.956576075777075,0.5945673604686452
62.0,20.622512710001473,0.5166039519783411,0.011847811223060585,10.956122445578831,0.594575867740793
63.0,20.62606712953952,0.5167764813555745,0.011842444416523165,10.955668872687946,0.5945842992962074
64.0,20.62962091481882,0.5169490006845889,0.0118370790959304,10.95521535718163,0.5945924103561558
65.0,20.633174065165434,0.5171215098953559,0.01183171526138586,10.954761899137093,0.594600347379703
66.0,20.636726579905428,0.517294008917846,0.01182635291298407,10.954308498631534,0.5946080491012403
67.0,20.640278458364804,0.5174664976820197,0.011820992050812731,10.953855155742147,0.5946156209813455
68.0,20.64382969986955,0.5176389761178329,0.011815632674954276,10.953401870546124,0.594623083409542
69.0,20.647380303745603,0.5178114441552449,0.011810274785487957,10.95294864312065,0.59463043269422
70.0,20.650930269318902,0.5179839017241988,0.011804918382491132,10.952495473542903,0.5946377299894072
71.0,20.654479595915337,0.5181563487546447,0.011799563466040674,10.952042361890062,0.5946452303679022
72.0,20.65802828286077,0.5183287851765249,0.011794210036214309,10.951589308239292,0.5946540410318552
73.0,20.661576329481047,0.5185012109197797,0.011788858093091468,10.951136312667764,0.5946628917099145
74.0,20.665123735101993,0.5186736259143344,0.01178350763675448,10.950683375252636,0.5946717631370015
75.0,20.668670499049377,0.518846030090129,0.011778158667289235,10.950230496071061,0.5946804266253131
76.0,20.67221662064899,0.5190184233770937,0.011772811184786148,10.949777675200194,0.594688649218026
77.0,20.675762099226557,0.5191908057051456,0.011767465189340688,10.949324912717177,0.5946967860463721
78.0,20.679306934107814,0.5193631770042121,0.011762120681053942,10.948872208699152,0.5947052016037547
79.0,20.682851124618455,0.5195355372042157,0.01175677766003324,10.948419563223252,0.5947142507197951
80.0,20.686394670084148,0.5197078862350651,0.011751436126392609,10.947966976366612,0.594722941276459
81.0,20.689937569830565,0.5198802240266764,0.01174609608025303,10.94751444820635,0.5947308857122048
82.0,20.693479823183342,0.520052550508966,0.011740757521742896,10.94706197881959,0.5947381953676038
83.0,20.6970214294681,0.5202248656118372,0.011735420450998187,10.946609568283444,0.5947456423234755
84.0,20.700562388010443,0.5203971692652026,0.011730084868162745,10.946157216675019,0.5947535020409357
85.0,20.704102698135955,0.520569461398963,0.011724750773388422,10.945704924071418,0.5947608585041962
86.0,20.70764235917021,0.5207417419430223,0.011719418166835213,10.945252690549736,0.5947679418246782
87.0,20.711181370438766,0.5209140108272885,0.011714087048671355,10.944800516187065,0.5947747068068675
88.0,20.714719731267152,0.5210862679816469,0.011708757392610389,10.944348401060248,0.5947821330175397
89.0,20.718257440980903,0.5212585133360147,0.011703429193408943,10.943896345246076,0.5947895438717533
90.0,20.72179449890554,0.5214307468202736,0.011698102483094323,10.943444348821616,0.5947967068708093
91.0,20.725330904366555,0.5216029683643305,0.011692777261922672,10.942992411863937,0.5948036701401204
92.0,20.728866656689114,0.5217751778980061,0.011687453488279891,10.942540534450133,0.5948115713357753
93.0,20.732401755198534,0.521947375351183,0.011682131180733378,10.942088716657278,0.5948195814125167
94.0,20.73593619922033,0.5221195606537449,0.011676810364386678,10.941636958562407,0.5948259149231364
95.0,20.73946998808001,0.5222917337355992,0.01167149103954001,10.941185260242552,0.5948322660091064
96.0,20.743003121103058,0.5224638945266467,0.011666173206498149,10.940733621774736,0.5948401120753944
97.0,20.746535597614965,0.5226360429567852,0.011660856865570609,10.940282043235973,0.594847499144146
98.0,20.75006741694122,0.5228081789559087,0.011655542017071176,10.93983052470327,0.5948548327821367
99.0,20.753598578407278,0.5229803024539237,0.011650228661317747,10.939379066253629,0.5948622909252147
100.0,20.757129081338633,0.5231524133807277,0.011644916798632075,10.938927667964041,0.5948697924046519
101.0,20.76065892506074,0.5233245116662181,0.011639606429339562,10.938476329911488,0.5948773127101213
102.0,20.76418810889905,0.5234965972402968,0.011634297553768795,10.938025052172947,0.5948845920283335
103.0,20.767716632179027,0.5236686700328613,0.011628990172251349,10.937573834825383,0.5948916010709392
104.0,20.77124449422613,0.5238407299738195,0.011623684285121323,10.937122677945759,0.5948983392157589
105.0,20.77477169436582,0.5240127769930703,0.011618379892715277,10.93667158161102,0.5949051598771539
106.0,20.778298231923547,0.5241848110205107,0.011613076995371487,10.936220545898111,0.5949120414108615
107.0,20.78182410622476,0.5243568319860566,0.011607775590676177,10.93576957088395,0.5949189821789893
108.0,20.78534931659493,0.524528839819605,0.011602475677585168,10.93531865664544,0.5949258396409024
109.0,20.788873862359512,0.524700834451065,0.011597177256485217,10.934867803259475,0.5949323600622115
110.0,20.792397742843967,0.5248728158103497,0.011591880327769116,10.934417010802937,0.5949415378361019
111.0,20.795920957373774,0.5250447838273623,0.011586584891835184,10.933966279352704,0.5949496035972939
112.0,20.79944350527441,0.5252167384320301,0.011581290949086864,10.933515608985637,0.5949574646799707
113.0,20.802965385871346,0.5253886795542556,0.011575998499932186,10.93306499977859,0.594965308030514
114.0,20.806486598490075,0.525560607123953,0.011570707544783393,10.932614451808412,0.5949734768845651
115.0,20.810007142456094,0.525732521071053,0.011565418084056466,10.932163965151936,0.5949819019608699
116.0,20.81352701709491,0.5259044213254767,0.01156013011817053,10.931713539885987,0.5949911546296266
117.0,20.817046221732053,0.5260763078171448,0.011554843645602247,10.931263176087368,0.5950014668848383
118.0,20.820564755693027,0.5262481804759891,0.011549558663019335,10.930812873832853,0.595011751501561
119.0,20.8240826183034,0.5264200392319424,0.011544275170308415,10.930362633199195,0.5950197026680099
120.0,20.82759980888872,0.5265918840149366,0.011538993167928667,10.929912454263137,0.5950281752014538
121.0,20.83111632677455,0.5267637147549152,0.011533712656345426,10.929462337101418,0.5950361107894052
122.0,20.83463217128649,0.5269355313818125,0.011528433636029409,10.929012281790756,0.5950433832052292
123.0,20.83814734175013,0.5271073338255824,0.0115231561074563,10.928562288407868,0.59505034399283
124.0,20.8416618374911,0.5272791220161758,0.011517880071106153,10.928112357029455,0.5950572891220722
125.0,20.845175657835032,0.5274508958835464,0.011512605527463029,10.927662487732208,0.5950646007499659
126.0,20.848688802107596,0.5276226553576432,0.011507332477014257,10.927212680592808,0.5950720023212125
127.0,20.852201269634463,0.5277944003684455,0.011502060920250022,10.926762935687927,0.5950792988583783
128.0,20.855713059741348,0.5279661308459109,0.011496790857662897,10.926313253094223,0.595086651933662
129.0,20.85922417175397,0.5281378467200231,0.01149152228974716,10.925863632888348,0.5950942553582815
130.0,20.86273460499809,0.5283095479207487,0.011486255216998401,10.925414075146938,0.5951017028541634
131.0,20.866244358799474,0.5284812343780766,0.011480989639912908,10.924964579946622,0.5951088817021426
132.0,20.869753432483936,0.5286529060219977,0.01147572555898723,10.924515147364017,0.5951158661794392
133.0,20.8732618253773,0.5288245627825094,0.011470462974717583,10.924065777475732,0.5951227340019865
134.0,20.876769536805433,0.5289962045896061,0.011465201887599285,10.923616470358363,0.5951295659690422
135.0,20.880276566094228,0.5291678313733036,0.011459942280137221,10.923167226087312,0.5951363057106411
136.0,20.883782912569604,0.529339443063607,0.011454684162860686,10.922718044738714,0.5951431210935767
137.0,20.88728857555751,0.5295110395905412,0.011449427542777143,10.922268926389139,0.5951498514051307
138.0,20.89079355438394,0.5296826208841269,0.011444172420402687,10.92181987111514,0.5951564959063825
139.0,20.89429784837489,0.5298541868743981,0.011438918788222749,10.921370878993166,0.5951634132552256
140.0,20.8978014568564,0.5300257374913846,0.011433666650157409,10.920921950099684,0.5951702505871647
141.0,20.90130437915457,0.5301972726651345,0.01142841601157193,10.920473084511222,0.595176802673461
142.0,20.90480661459555,0.5303687923257064,0.011423166872952086,10.920024282304295,0.5951828513493339
143.0,20.908308162505506,0.5305402964031616,0.011417919234778983,10.919575543555409,0.5951888865218697
144.0,20.911809022210658,0.5307117848275736,0.01141267309752851,10.919126868341055,0.5951967275663376
145.0,20.915309193037267,0.5308832575290094,0.01140742846167103,10.91867825673772,0.5952046220454431
146.0,20.91880867431164,0.5310547144375665,0.01140218532767094,10.918229708821878,0.5952124544334542
147.0,20.92230746536011,0.5312261554833267,0.011396943695986282,10.91778122466999,0.5952204943094527
148.0,20.92580556550907,0.5313975805964046,0.011391703567068206,10.917332804358516,0.5952290304837581
149.0,20.929302974084965,0.5315689897069031,0.011386464928223846,10.916884447963138,0.5952371981377741
150.0,20.932799690414264,0.5317403827449411,0.01138122777748304,10.916436155559452,0.5952450385771861
151.0,20.9362957138232,0.5319117596405968,0.01137599206498512,10.91598792722204,0.5952526700292916
152.0,20.93979104363832,0.5320831203240038,0.011370757805430202,10.915539763026457,0.5952608895854824
153.0,20.943285679186285,0.5322544647253077,0.011365525040797532,10.915091663049067,0.5952666600995519
154.0,20.946779619793805,0.5324257927746808,0.01136029378018809,10.914643627366305,0.5952746675163935
155.0,20.95027286478764,0.5325971044022811,0.011355064021626756,10.914195656054616,0.595283548964418
156.0,20.95376541349461,0.5327683995382954,0.011349835764920699,10.913747749190438,0.5952920319242465
157.0,20.957257265241584,0.5329396781129104,0.01134460901060464,10.913299906850204,0.5952998251881566
158.0,20.960748419355475,0.5331109400563325,0.011339383739251457,10.912852129109202,0.59530700080531
159.0,20.96423887516327,0.5332821852987647,0.011334159966539435,10.912404416043696,0.5953138344363366
160.0,20.967728631992003,0.5334534137704293,0.011328937695526795,10.911956767730086,0.5953207070378247
161.0,20.971217689168746,0.5336246254015491,0.011323716926700455,10.911509184244762,0.5953274737368729
162.0,20.97470604602065,0.5337958201223733,0.011318497660540048,10.911061665664105,0.595334044635149
163.0,20.978193701874922,0.5339669978631495,0.011313279897517813,10.910614212064488,0.5953403956771978
164.0,20.981680656058824,0.534138158554131,0.011308063638098467,10.91016682352227,0.5953463522707148
165.0,20.985166907899682,0.5343093021255988,0.011302848882739113,10.909719500113798,0.5953519639193913
166.0,20.988652456724886,0.5344804285078305,0.011297635624381155,10.909272241915275,0.5953574258514936
167.0,20.992137301861874,0.5346515376311193,0.011292423843253456,10.908825049002512,0.5953623496976039
168.0,20.99562144263817,0.5348226294257699,0.011287213567525696,10.908377921451834,0.5953670454265888
169.0,20.99910487838134,0.5349937038220964,0.011282004797653549,10.907930859339553,0.5953714672071919
170.0,21.002587608419013,0.535164760750428,0.011276797534084688,10.907483862741975,0.5953756771307601
171.0,21.00606963207891,0.5353358001411048,0.01127159177725892,10.907036931735389,0.5953798340463777
172.0,21.00955094868879,0.5355068219244665,0.011266387527608316,10.906590066396078,0.5953848245336096
173.0,21.01303155757649,0.5356778260308822,0.01126118478555735,10.906143266800308,0.5953897777016065
174.0,21.016511458069917,0.5358488123907207,0.011255983521641573,10.905696533024509,0.5953959548319613
175.0,21.01999064949704,0.5360197809343714,0.011250783763476716,10.905249865144935,0.5954022848065393
176.0,21.02346913118589,0.5361907315922277,0.011245585514352879,10.904803263237817,0.5954084196244748
177.0,21.02694690246459,0.5363616642946969,0.011240388774692125,10.904356727379373,0.5954149459758871
178.0,21.030423962661313,0.5365325789722021,0.011235193544910023,10.903910257645801,0.5954214637331555
179.0,21.033900311104297,0.5367034755551705,0.01122999982541575,10.903463854113298,0.595427916335466
180.0,21.037375947121873,0.5368743539740591,0.011224807589476362,10.903017516857522,0.5954341865214202
181.0,21.040850870042426,0.537045214159308,0.011219616842624021,10.902571245954226,0.5954404722784513
182.0,21.044325079194405,0.5372160560413949,0.011214427606211282,10.90212504147956,0.5954468267920648
183.0,21.04779857390636,0.5373868795508067,0.011209239880645245,10.901678903509657,0.5954533273664909
184.0,21.051271353506884,0.5375576846180343,0.011204053666329107,10.901232832120638,0.5954596960564369
185.0,21.054743417324655,0.5377284711735779,0.011198868963662574,10.90078682738861,0.5954659819632059
186.0,21.05821476468842,0.537899239147964,0.011193685773042101,10.900340889389664,0.5954715670620933
187.0,21.061685394927004,0.538069988471725,0.011188504094861057,10.89989501819988,0.5954776320406437
188.0,21.065155307369313,0.538240719075405,0.011183323929510127,10.899449213895318,0.5954852715022193
189.0,21.068624501344303,0.5384114308895612,0.011178145277377538,10.89900347655203,0.595492605665949
190.0,21.072092976181032,0.5385821238447703,0.011172968138849285,10.898557806246046,0.5954998113704063
191.0,21.07556073120861,0.5387527978716092,0.011167792514309317,10.898112203053385,0.5955069496678058
192.0,21.079027765756244,0.5389234529006777,0.011162618404139703,10.897666667050048,0.5955144206584816
193.0,21.082494079153204,0.5390940888625871,0.01115744580872077,10.897221198312018,0.5955217511723179
194.0,21.085959670728833,0.5392647056879608,0.011152274728431335,10.896775796915266,0.5955285962181252
