k,PSNR,SSIM,mse,Log-Gradient,Angle
0.0,20.40151524029995,0.5059242033487106,0.0,10.98428340752713,0.5811629336451424
1.0,20.404558819090767,0.5060662363689784,0.010123536430933706,10.983891284969477,0.5938697308183895
2.0,20.408116846605964,0.5062368670545744,0.011994333334981917,10.983438296043822,0.594015309588401
3.0,20.411702524764536,0.5064094677442298,0.012131175564575509,10.982982108630276,0.594075525032574
4.0,20.415290291941997,0.5065822906840349,0.012145082558202592,10.982525662540684,0.5940870248868894
5.0,20.41887764357659,0.5067551406571327,0.012143577852461897,10.982069249245464,0.5941003672952977
6.0,20.4224641054575,0.5069279774934442,0.0121385031082518,10.981612925007141,0.594115215552525
7.0,20.426049552063276,0.5071007908701924,0.01213232566166837,10.98115670504112,0.5941256218160037
8.0,20.429633943920656,0.5072735773876793,0.012125746168081977,10.980700594568926,0.5941361496139457
9.0,20.43321726548672,0.507446335490759,0.012118959187934484,10.980244596256908,0.5941422244145552
10.0,20.436799509524665,0.5076190644832642,0.012112074478218413,10.979788711332004,0.5941481678149629
11.0,20.44038067200519,0.5077917640064501,0.012105138358616494,10.979332940489968,0.5941560741735715
12.0,20.44396075027709,0.507964433813984,0.012098164914675706,10.978877284255951,0.5941635518847863
13.0,20.44753974259788,0.5081370737115817,0.012091168378486223,10.978421743022027,0.5941714161922347
14.0,20.451117647652502,0.5083096835505644,0.012084155523278824,10.977966317051825,0.594179447123024
15.0,20.454694464394983,0.5084822632109104,0.012077128560885404,10.977511006567898,0.5941874391305433
16.0,20.458270192017665,0.5086548125950228,0.012070098303587882,10.977055811710862,0.5941952287533374
17.0,20.46184482979907,0.5088273316163141,0.012063063473124762,10.976600732608572,0.5942030475471646
18.0,20.46541837697709,0.508999820179859,0.012056020259144387,10.976145769422704,0.5942110735541932
19.0,20.46899083295908,0.5091722782099631,0.01204897553436656,10.975690922271102,0.5942195173175718
20.0,20.47256219717871,0.5093447056324427,0.012041932293250276,10.975236191248225,0.5942280670256125
21.0,20.47613246901381,0.5095171023696997,0.01203488779094535,10.974781576448542,0.5942366374769977
22.0,20.47970164789809,0.5096894683472292,0.012027843670942258,10.974327077969502,0.5942450990342044
23.0,20.483269733285553,0.5098618034941431,0.012020802566124875,10.973872695871403,0.5942536114191167
24.0,20.486836724629683,0.5100341077373989,0.012013764445867598,10.97341843022928,0.5942620821805711
25.0,20.490402621368702,0.5102063810012611,0.012006728540263875,10.972964281126327,0.5942704561969675
26.0,20.493967422941154,0.5103786232116524,0.011999694585404092,10.972510248638628,0.5942789404668439
27.0,20.497531128805548,0.5105508342960176,0.011992661923474805,10.972056332855727,0.5942876333315837
28.0,20.501093738425126,0.5107230141820717,0.011985632009509901,10.971602533855096,0.5942961867420774
29.0,20.504655251263998,0.5108951627976368,0.011978605242635963,10.971148851711495,0.5943047555128967
30.0,20.508215666787038,0.5110672800705832,0.011971581634054812,10.970695286499314,0.5943133289661111
31.0,20.511774984459905,0.5112393659288796,0.01196456119257806,10.970241838292612,0.5943218501453044
32.0,20.515333203748934,0.5114114203005576,0.011957543925065778,10.969788507165173,0.5943302818301858
33.0,20.51889032412118,0.511583443113696,0.011950529812837203,10.969335293190628,0.5943387264021391
34.0,20.522446345044358,0.5117554342964669,0.011943518309482565,10.968882196445014,0.5943471846876894
35.0,20.526001265986835,0.5119273937770771,0.011936509386122698,10.968429217002122,0.5943556489271268
36.0,20.52955508641762,0.5120993214838115,0.01192950341442244,10.967976354935605,0.5943640894111705
37.0,20.533107805806353,0.5122712173449996,0.011922500585794069,10.967523610318185,0.5943726449047457
38.0,20.53665942362332,0.5124430812890454,0.011915500917726278,10.967070983222373,0.5943811380805185
39.0,20.540209939339405,0.5126149132443868,0.011908504411677753,10.96661847372053,0.5943896046187945
40.0,20.543759352426115,0.5127867131395423,0.011901511026622636,10.966166081884982,0.5943980662402325
41.0,20.54730766235557,0.5129584809030722,0.011894520413659416,10.965713807788648,0.594406410460796
42.0,20.55085486860049,0.5131302164635932,0.011887532966753931,10.965261651503479,0.5944146731372417
43.0,20.554400970634198,0.5133019197497813,0.011880548686246231,10.964809613101309,0.5944229495175767
44.0,20.557945967930635,0.5134735906903648,0.011873567572230018,10.964357692653868,0.5944312929132102
45.0,20.561489859956424,0.5136452292131364,0.011866589433332686,10.963905890232956,0.5944396631276073
46.0,20.565032646181717,0.5138168352462996,0.011859614333319569,10.963454205910182,0.5944479451446504
47.0,20.56857432608257,0.513988408718785,0.011852642398812254,10.963002639756938,0.5944560430421202
48.0,20.572114899135666,0.5141599495595667,0.01184567362956873,10.962551191844518,0.5944639882409848
49.0,20.57565436481829,0.5143314576976872,0.011838708025221183,10.962099862244127,0.5944718308474487
50.0,20.57919272260833,0.5145029330622363,0.011831745585293077,10.961648651026877,0.5944796877077397
51.0,20.58272997198428,0.5146743755823584,0.011824786309213875,10.961197558263791,0.594487568476406
52.0,20.58626611242523,0.5148457851872609,0.011817830196331619,10.960746584025808,0.5944954156108221
53.0,20.589801143410888,0.5150171618061978,0.011810877245924325,10.960295728383775,0.5945032103905842
54.0,20.593335064421566,0.5151885053684877,0.011803927457209385,10.959844991408461,0.5945109543239134
55.0,20.59686787493819,0.5153598158034948,0.011796980829352368,10.959394373170547,0.594517925011489
56.0,20.600399574442285,0.5155310930406459,0.011790037361474525,10.958943873740633,0.5945259471511318
57.0,20.60393016241598,0.5157023370094304,0.011783097052659673,10.958493493189238,0.5945335342721508
58.0,20.607459638342025,0.5158735476393788,0.011776159901960086,10.958043231586798,0.5945409392741383
59.0,20.610988001703774,0.5160447248600885,0.011769225675758796,10.957593089002442,0.5945487723533853
60.0,20.61451525198519,0.5162158686012105,0.01176229438624989,10.957143065505708,0.5945567650063496
61.0,20.61804138867084,0.5163869787924505,0.011755366119273847,10.956693161166447,0.5945652191496202
62.0,20.62156641124592,0.51655805536357,0.011748441012342273,10.956243376054788,0.5945736169401464
63.0,20.62509031919621,0.5167290982443914,0.011741519064945152,10.95579371024078,0.5945820637556817
64.0,20.62861311200814,0.5169001073647962,0.011734600276559207,10.95534416379439,0.5945901585775314
65.0,20.63213478916872,0.5170710826547138,0.01172768464665008,10.954894736785512,0.5945980878861852
66.0,20.635655350165592,0.5172420240441429,0.011720772174674807,10.954445429283961,0.5946057947340921
67.0,20.639174794487026,0.5174129314631225,0.011713862860083636,10.953996241359476,0.5946133087394304
68.0,20.642693121621875,0.5175838048417635,0.011706956702322309,10.953547173081718,0.5946207527357611
69.0,20.646210331059645,0.5177546441102293,0.011700053700833431,10.953098224520271,0.5946280286509756
70.0,20.649726422290442,0.5179254491987423,0.011693153855058173,10.952649395744643,0.5946353041289226
71.0,20.653241394804986,0.518096220037586,0.011686257164437545,10.952200686824265,0.5946424332617407
72.0,20.65675524809464,0.5182669565570895,0.011679363628413751,10.951752097828486,0.5946509198911584
73.0,20.660267981651366,0.5184376586876538,0.011672473246431071,10.951303628826588,0.5946596689449234
74.0,20.663779594967757,0.5186083263597298,0.011665586017936961,10.950855279887769,0.5946684546654354
75.0,20.667290087537022,0.5187789595038398,0.011658701942382912,10.95040705108115,0.5946771175269959
76.0,20.67079945885301,0.5189495580505482,0.011651821019225071,10.949958942475778,0.5946854691235125
77.0,20.67430770841018,0.519120121930477,0.011644943247925102,10.949510954140624,0.5946934485067449
78.0,20.677814835703614,0.5192906510743237,0.011638068627950651,10.949063086144577,0.5947015734679539
79.0,20.681320840229034,0.5194611454128358,0.011631197158775945,10.948615338556452,0.5947104331316407
80.0,20.68482572148277,0.5196316048768209,0.011624328839882127,10.948167711444988,0.5947191515751734
81.0,20.688329478961805,0.5198020293971396,0.01161746367075772,10.947720204878841,0.5947274963774642
82.0,20.691832112163723,0.5199724189047209,0.011610601650898994,10.947272818926598,0.5947343195311315
83.0,20.69533362058676,0.5201427733305509,0.011603742779810113,10.946825553656758,0.5947416514492624
84.0,20.698834003729758,0.5203130926056758,0.011596887057003506,10.946378409137754,0.5947497642285464
85.0,20.702333261092214,0.5204833766612024,0.011590034481999852,10.94593138543793,0.5947572401427583
86.0,20.705831392174254,0.5206536254282892,0.0115831850543284,10.945484482625558,0.5947643768656461
87.0,20.70932839647661,0.5208238388381613,0.011576338773526883,10.945037700768832,0.5947712219731054
88.0,20.712824273500686,0.5209940168221109,0.011569495616421354,10.944591039935663,0.5947781784092451
89.0,20.716319022748493,0.5211641593114781,0.011562655569032021,10.94414450019376,0.5947855070563669
90.0,20.71981264372269,0.5213342662376698,0.01155581866712526,10.943698081611084,0.5947927410099781
91.0,20.72330513592656,0.5215043375321585,0.011548984910328365,10.94325178425551,0.5947996952169149
92.0,20.726796498863663,0.5216743731263976,0.011542154251270746,10.942805608194886,0.5948069346314606
93.0,20.730286732038437,0.5218443729519594,0.01153532671748796,10.942359553496946,0.5948148014755646
94.0,20.73377583495613,0.5220143369404939,0.01152850232900141,10.941913620229325,0.5948223602426762
95.0,20.737263807122623,0.5221842650237218,0.011521681085484318,10.941467808459578,0.5948281744896455
96.0,20.740750648044436,0.522354157133432,0.011514862986614978,10.941022118255182,0.5948351697105195
97.0,20.74423635722873,0.5225240132014505,0.011508048032076596,10.94057654968353,0.5948427410688356
98.0,20.747720934183306,0.5226938331596886,0.011501236221557123,10.940131102811945,0.594849957316157
99.0,20.751204378416613,0.522863616940117,0.011494427554749102,10.939685777707654,0.5948572386259516
100.0,20.754686689437733,0.5230333644747555,0.01148762203134918,10.93924057443782,0.5948645543503257
101.0,20.758167866756388,0.5232030756957012,0.011480819651058028,10.938795493069513,0.5948720125580599
102.0,20.76164790988296,0.5233727505350985,0.011474020413580047,10.93835053366973,0.5948793666366076
103.0,20.76512681832847,0.5235423889251658,0.011467224318622878,10.937905696305387,0.5948864823207741
104.0,20.768604591604568,0.5237119907981785,0.01146043136589726,10.937460981043316,0.5948933139143404
105.0,20.772081229223577,0.5238815560864803,0.011453641555116661,10.93701638795027,0.5948999561871876
106.0,20.77555673069845,0.5240510847224664,0.011446854885996829,10.936571917092921,0.594906660652444
107.0,20.779031095542795,0.5242205766386072,0.011440071357171552,10.936127568537854,0.5949134952669135
108.0,20.782504323270857,0.5243900317674263,0.011433290965306457,10.935683342351558,0.594920308774341
109.0,20.785976413397552,0.5245594500415239,0.011426513710165278,10.935239238600442,0.5949270285931975
110.0,20.78944736543844,0.5247288313935499,0.01141973959151805,10.934795257350828,0.5949331762179726
111.0,20.792917178909715,0.5248981757562273,0.0114129686091409,10.934351398668962,0.5949427290996346
112.0,20.796385853328246,0.5250674830623422,0.011406200762815418,10.933907662621007,0.5949505771684224
113.0,20.799853388211545,0.525236753244727,0.011399436052328358,10.933464049273038,0.5949582822607534
114.0,20.803319783077782,0.5254059862363109,0.011392674477471002,10.933020558691055,0.5949660551190772
115.0,20.806785037445778,0.5255751819700547,0.011385916038038874,10.932577190940973,0.5949741048432219
116.0,20.810249150835016,0.5257443403790064,0.011379160733831174,10.932133946088623,0.5949824004059993
117.0,20.81371212276563,0.5259134613962733,0.011372408564586432,10.931690824199755,0.5949915581825956
118.0,20.81717395275842,0.5260825449550189,0.0113656595264949,10.93124782534002,0.5950017194905666
119.0,20.82063464033485,0.5262515909884826,0.011358913616846817,10.930804949574958,0.5950118128043599
120.0,20.824094185017014,0.5264205994299549,0.011352170835481472,10.930362196970037,0.595019598401968
121.0,20.82755258632771,0.5265895702128064,0.011345431182244538,10.92991956759064,0.5950279058975937
122.0,20.831009843790362,0.5267585032704679,0.011338694656987608,10.929477061502059,0.5950357346282716
123.0,20.834465956929073,0.5269273985364366,0.011331961259567692,10.929034678769511,0.5950429264751426
124.0,20.837920925268627,0.5270962559442746,0.01132523098984674,10.928592419458129,0.5950497842219765
125.0,20.84137474833443,0.5272650754276035,0.011318503847690944,10.92815028363296,0.5950566111592469
126.0,20.84482742565259,0.5274338569201183,0.011311779832970456,10.927708271358968,0.5950637450502262
127.0,20.848278956749873,0.5276026003555837,0.011305058945558602,10.92726638270104,0.5950710203410995
128.0,20.851729341153707,0.5277713056678159,0.011298341185331661,10.926824617723971,0.5950781975744829
129.0,20.8551785783922,0.5279399727907137,0.011291626552168072,10.926382976492482,0.5950854070035019
130.0,20.858626667994113,0.5281086016582409,0.011284915045948049,10.925941459071202,0.5950927827162097
131.0,20.86207360948889,0.528277192204417,0.011278206666552996,10.925500065524686,0.5951001384718771
132.0,20.865519402406658,0.5284457443633329,0.011271501413865058,10.925058795917398,0.5951072435166108
133.0,20.868964046278187,0.5286142580691567,0.011264799287766476,10.924617650313726,0.5951141295750294
134.0,20.872407540634946,0.5287827332561196,0.011258100288139191,10.92417662877797,0.595120875263928
135.0,20.875849885009078,0.5289511698584957,0.0112514044087238,10.923735731373963,0.59512761289821
136.0,20.879291078933385,0.5291195678106712,0.011244711635018199,10.923294958164618,0.5951342578685402
137.0,20.88273112194136,0.5292879270470671,0.01123802198599022,10.922854309213992,0.5951409047746731
138.0,20.88617001356713,0.5294562475021748,0.011231335451473435,10.922413784585933,0.5951475647489604
139.0,20.889607753345544,0.529624529110553,0.01122465203852368,10.92197338434429,0.595154055126394
140.0,20.893044340812125,0.5297927718068537,0.01121797175023781,10.92153310855287,0.5951607248131766
141.0,20.896479775503096,0.5299609755257654,0.011211294586496258,10.921092957275397,0.5951675161428055
142.0,20.899914056955332,0.5301291402020718,0.01120462054717553,10.920652930575512,0.5951740576000586
143.0,20.90334718470642,0.5302972657706111,0.01119794963214789,10.920213028516775,0.5951802426623238
144.0,20.90677915829463,0.5304653521662895,0.011191281841280857,10.91977325116266,0.5951857729098332
145.0,20.910209977258887,0.5306333993240879,0.011184617174436794,10.919333598576559,0.5951930555291929
146.0,20.913639641138843,0.5308014071790658,0.011177955631472423,10.918894070821784,0.5952005547887588
147.0,20.9170681494748,0.5309693756663284,0.011171297212238526,10.918454667961564,0.5952083094182222
148.0,20.920495501807768,0.5311373047210757,0.011164641916579354,10.918015390059042,0.5952159292739134
149.0,20.923921697679447,0.5313051942785555,0.011157989744332394,10.91757623717728,0.595224176647485
150.0,20.927346736632213,0.531473044274097,0.011151340668218171,10.917137209377795,0.5952323816674893
151.0,20.93077061820914,0.531640854643101,0.011144694711862798,10.916698306723367,0.5952402534855591
152.0,20.93419334195376,0.5318086253209949,0.011138051808069496,10.91625952927497,0.5952478266776403
153.0,20.937614907410445,0.5319763562432984,0.011131411970181736,10.915820877094468,0.5952553278224584
154.0,20.94103531412438,0.5321440473456265,0.011124775253519804,10.915382350244554,0.5952636702505208
155.0,20.944454561641447,0.5323116985636694,0.011118141658016832,10.914943948787842,0.5952685377772972
156.0,20.947872649508206,0.5324793098331794,0.011111511182546701,10.914505672786866,0.5952770649578577
157.0,20.951289577271922,0.5326468810899839,0.011104883824895495,10.9140675223041,0.5952856671285309
158.0,20.95470534448056,0.5328144122699708,0.011098259583639728,10.913629497401859,0.5952938399303439
159.0,20.95811995068277,0.5329819033091132,0.01109163843562417,10.913191598141255,0.595301365301265
160.0,20.961533395427907,0.5331493541434541,0.011085020402927841,10.912753824584511,0.595308322103155
161.0,20.964945678266012,0.5333167647090913,0.011078405485431049,10.912316176793771,0.5953149815326855
162.0,20.96835679874783,0.5334841349422136,0.011071793683006627,10.911878654831096,0.5953217235979353
163.0,20.971766756424817,0.5336514647790789,0.011065184995519721,10.911441258758458,0.5953283094496687
164.0,20.975175550849112,0.5338187541559977,0.011058579422827725,10.911003988637757,0.5953347181467843
165.0,20.97858318157357,0.5339860030093705,0.011051976964780077,10.910566844530802,0.595340909870196
166.0,20.98198964815172,0.5341532112756587,0.01104537762121808,10.910129826499324,0.5953466718732988
167.0,20.985394950137838,0.5343203788914084,0.011038781387903924,10.909692934604893,0.5953520930359666
168.0,20.98879908708686,0.5344875057932238,0.011032188237351014,10.909256168908504,0.5953575042442275
169.0,20.992202058554447,0.5346545919177929,0.011025598200809032,10.908819529471646,0.5953623289014283
170.0,20.995603864096957,0.5348216372018656,0.011019011278115817,10.908383016355723,0.5953669309375386
171.0,20.999004503271458,0.5349886415822681,0.011012427469100498,10.907946629622055,0.5953712328719402
172.0,21.00240397563571,0.5351556049958928,0.011005846773583804,10.90751036933188,0.5953753639433764
173.0,21.0058022807482,0.5353225273797252,0.010999269191377857,10.907074235546348,0.595379345672717
174.0,21.0091994181681,0.5354894086707886,0.010992694722286587,10.906638228326536,0.5953841075397089
175.0,21.0125953874553,0.5356562488062118,0.01098612334607881,10.906202347733535,0.5953888184827746
176.0,21.015990188170385,0.5358230477231832,0.010979555070072774,10.905766593828313,0.5953946090261447
177.0,21.019383819874662,0.5359898053589549,0.0109729899067893,10.905330966671686,0.5954008418241944
178.0,21.02277628213015,0.5361565216508667,0.010966427856026141,10.904895466324382,0.5954068463436311
179.0,21.02616757449955,0.5363231965363203,0.010959868917573699,10.904460092847044,0.5954129794800277
180.0,21.029557696546295,0.536489829952791,0.010953313091215033,10.904024846300235,0.5954193174836153
181.0,21.032946647834514,0.5366564218378375,0.010946760364875114,10.90358972674421,0.5954256243400374
182.0,21.036334427929056,0.5368229721290776,0.010940210711844464,10.903154734238665,0.5954317550460314
183.0,21.03972103639547,0.5369894807642092,0.010933664169208006,10.902719868843905,0.5954378456409147
184.0,21.043106472800012,0.5371559476810032,0.010927120736743488,10.90228513062014,0.5954439177853713
185.0,21.04649073670965,0.5373223728173041,0.010920580414223665,10.901850519627502,0.5954502718956892
186.0,21.049873827692075,0.537488756111026,0.010914043201416463,10.901416035926035,0.5954565667811583
187.0,21.053255745315667,0.537655097500158,0.010907509098085133,10.900981679575697,0.5954630914160511
188.0,21.056636489149533,0.5378213969227591,0.010900978103988587,10.90054745063636,0.5954692395904915
189.0,21.060016058763477,0.5379876543169688,0.010894450218881604,10.90011334916781,0.595474867788035
190.0,21.06339445372803,0.5381538696209933,0.010887925442514955,10.899679375229745,0.5954813231752321
191.0,21.066771673614415,0.538320042773115,0.010881403774635931,10.899245528881776,0.5954888074957309
192.0,21.07014771799458,0.5384861737116862,0.01087488521498808,10.89881181018343,0.5954959276325548
193.0,21.073522586441182,0.5386522623751416,0.010868369763311776,10.898378219194141,0.595502925155256
194.0,21.076896278527578,0.5388183087019806,0.010861857419344043,10.897944755973258,0.5955098381285002
