k,PSNR,SSIM,mse,Log-Gradient,Angle
0.0,20.299509764124394,0.45480990887103734,0.0,10.935024847024305,0.6008034195683242
1.0,20.302657494070466,0.4549582873818642,0.010163335303943765,10.93460146550852,0.6012126451633099
2.0,20.306362777365656,0.4551346155784814,0.01214088351587049,10.934106207307899,0.6012189171601611
3.0,20.310093172746754,0.4553122774541633,0.012256704955278407,10.933607723949702,0.6012227283569727
4.0,20.313825792789682,0.45549008269923547,0.012266262882895005,10.933108920319382,0.6012304338178758
5.0,20.317558866992652,0.45566793886317586,0.01226521203212248,10.932610028970016,0.6012385513370727
6.0,20.3212921564944,0.4558458334371133,0.012262305837861013,10.932111084769112,0.6012469199773948
7.0,20.325025615795585,0.45602376400741457,0.012258916975565916,10.93161209571984,0.6012553977463609
8.0,20.328759231379223,0.4562017298275603,0.012255342320060876,10.931113064594843,0.6012638479470198
9.0,20.332492998680642,0.45637973062884524,0.012251678196463575,10.930613992743034,0.6012723022786904
10.0,20.336226915424106,0.45655776624894595,0.012247971968701228,10.930114880953496,0.6012808733515763
11.0,20.33996098043454,0.456735836607993,0.012244236930710063,10.929615729700924,0.6012894169431675
12.0,20.343695192686766,0.4569139416207609,0.012240478501045485,10.92911653931449,0.6012980618028337
13.0,20.34742955164709,0.45709208123441863,0.012236711613833462,10.928617309975069,0.6013067107571799
14.0,20.351164056884695,0.4572702554028946,0.012232939276859008,10.928118041827439,0.6013153618609722
15.0,20.35489870794821,0.45744846407984885,0.012229162099941791,10.927618735018646,0.6013239894787167
16.0,20.358633504418275,0.4576267072206514,0.012225379700335388,10.927119389676141,0.6013326936202149
17.0,20.362368445900685,0.4578049847819625,0.012221593992144964,10.926620005904722,0.6013414134694419
18.0,20.366103532006626,0.45798329672084503,0.01221780689318456,10.926120583766807,0.6013501040919923
19.0,20.369838762351044,0.45816164299462075,0.012214019595599906,10.925621123329178,0.6013586892715893
20.0,20.373574136551483,0.458340023560792,0.01221023066592093,10.925121624663475,0.601367313746997
21.0,20.377309654227275,0.4585184383769723,0.012206438624520026,10.924622087854546,0.6013760007412384
22.0,20.381045314998964,0.4586968874008385,0.012202643719889756,10.924122512987237,0.6013847555075077
23.0,20.38478111848788,0.45887537059010214,0.012198848930706118,10.92362290012139,0.6013934726127946
24.0,20.38851706431584,0.45905388790248614,0.012195054286331221,10.923123249316017,0.6014021379269748
25.0,20.392253152104868,0.45923243929569807,0.012191259765888173,10.922623560625253,0.6014108754935109
26.0,20.39598938147707,0.45941102472743106,0.012187465105643875,10.92212383410404,0.6014196192396523
27.0,20.399725752054493,0.4595896441553395,0.012183669762166312,10.921624069811061,0.6014283629107824
28.0,20.403462263459037,0.45976829753704046,0.012179874573836756,10.921124267803583,0.6014370843653845
29.0,20.407198915312385,0.45994698483010743,0.012176079549229122,10.920624428138684,0.6014457521626569
30.0,20.410935707235947,0.4601257059920612,0.012172284695059314,10.920124550873316,0.6014543780192446
31.0,20.414672638850817,0.46030446098037586,0.012168490016584346,10.919624636064345,0.6014629439460167
32.0,20.41840970977777,0.4604832497524633,0.012164695517908036,10.919124683768585,0.6014714709523995
33.0,20.422146919637164,0.46066207226568157,0.012160901202216913,10.918624694042817,0.6014800013216481
34.0,20.42588426804901,0.46084092847733166,0.012157107071962976,10.918124666943818,0.6014886008735333
35.0,20.42962175463289,0.4610198183446504,0.012153313129006553,10.91762460252838,0.601497144748763
36.0,20.433359379007964,0.4611987418248152,0.012149519172799553,10.917124500855198,0.6015057638685081
37.0,20.43709714079299,0.46137769887494245,0.012145725202832823,10.91662436198297,0.6015143515431253
38.0,20.44083503960627,0.461556689452088,0.012141931252661267,10.916124185968597,0.6015229053139898
39.0,20.44457307506566,0.46173571351324044,0.012138137183241375,10.915623972869048,0.6015314845040703
40.0,20.44831124678858,0.46191477101532574,0.012134343303968042,10.91512372274121,0.6015400681754199
41.0,20.45204955439199,0.46209386191520546,0.012130549615612591,10.914623435642035,0.6015485736099443
42.0,20.455787997492397,0.46227298616968443,0.012126756118793222,10.914123111628532,0.6015569973019486
43.0,20.459526575705844,0.4624521437354887,0.012122962813998715,10.913622750757785,0.601565388729132
44.0,20.46326528864792,0.4626313345692958,0.012119169701608127,10.913122353086942,0.6015737002075001
45.0,20.467004135933742,0.4628105586277067,0.01211537678190755,10.91262191867323,0.6015819391162315
46.0,20.470743117177975,0.46298981586726556,0.012111583997738146,10.912121447573341,0.6015901767301236
47.0,20.474482231994806,0.46316910624444746,0.012107791278112193,10.911620939843308,0.6015987214878816
48.0,20.47822147999794,0.46334842971565954,0.012103998748553026,10.91112039554057,0.6016073358915067
49.0,20.481960860800644,0.46352778623725227,0.012100206409267768,10.910619814722645,0.6016159450122563
50.0,20.48570037401568,0.4637071757655054,0.01209641408785764,10.910119197449072,0.6016244063299926
51.0,20.489440019255362,0.4638865982566314,0.012092621890334726,10.909618543778235,0.6016330734198787
52.0,20.493179796131543,0.4640660536667847,0.012088829882979732,10.909117853767853,0.6016415181220399
53.0,20.496919704255582,0.4642455419520463,0.012085038066040298,10.908617127475729,0.6016494745535516
54.0,20.50065974323838,0.4644250630684396,0.012081246439739584,10.908116364959744,0.6016571040223103
55.0,20.50439991269036,0.4646046169719186,0.012077455004278584,10.90761556627787,0.6016652150119522
56.0,20.50814021222147,0.4647842036183705,0.012073663759838517,10.90711473148816,0.6016743040560324
57.0,20.511880641441195,0.4649638229636202,0.012069872706583145,10.906613860648756,0.6016832363751593
58.0,20.515621199958538,0.46514347496342573,0.01206608184466059,10.906112953817876,0.6016920481803687
59.0,20.51936188738203,0.465323159573481,0.012062291174205198,10.905612011053838,0.6017011037932058
60.0,20.523102703319715,0.4655028767494122,0.012058500695338733,10.905111032415036,0.6017101650695394
61.0,20.526843647379195,0.46568262644678543,0.0120547104081719,10.904610017959953,0.6017191457628931
62.0,20.53058471916756,0.46586240862109357,0.012050920312805271,10.904108967747161,0.6017280141834888
63.0,20.534325918291458,0.46604222322776995,0.012047130409330255,10.903607881835319,0.6017369187796126
64.0,20.53806724435703,0.4662220702221793,0.012043340697829988,10.90310676028317,0.6017457349546999
65.0,20.541808696969966,0.46640194955962366,0.012039551178379907,10.902605603149551,0.6017544343902571
66.0,20.54555027573548,0.46658186119533823,0.012035761851048446,10.902104410493383,0.6017630155359094
67.0,20.549291980258285,0.4667618050844939,0.012031972715897546,10.901603182373671,0.6017713632233864
68.0,20.55303381014264,0.46694178118219387,0.012028183772983102,10.90110191884952,0.6017791333162829
69.0,20.556775764992338,0.46712178944347665,0.012024395022355248,10.900600619980109,0.6017890985010483
70.0,20.560517844410654,0.4673018298233182,0.012020606464058827,10.900099285824718,0.6017980532409356
71.0,20.564260048000435,0.4674819022766245,0.012016818098133599,10.899597916442708,0.6018060355258958
72.0,20.568002375364017,0.4676620067582384,0.01201302992461445,10.899096511893532,0.6018138124695805
73.0,20.571744826103277,0.4678421432229398,0.012009241943531647,10.898595072236732,0.6018220669856562
74.0,20.575487399819604,0.46802231162543806,0.012005454154910928,10.898093597531938,0.6018303957655294
75.0,20.579230096113918,0.46820251192038187,0.012001666558773699,10.89759208783887,0.6018387238104359
76.0,20.582972914586662,0.46838274406235186,0.011997879155137108,10.897090543217336,0.6018471872273633
77.0,20.58671585483779,0.46856300800586453,0.011994091944014202,10.896588963727236,0.6018555537930208
78.0,20.590458916466794,0.46874330370536876,0.0119903049254138,10.896087349428557,0.601863784541428
79.0,20.594202099072675,0.4689236311152511,0.011986518099340784,10.895585700381377,0.6018717820337958
80.0,20.597945402253966,0.46910399018983334,0.011982731465795971,10.895084016645862,0.6018790636406449
81.0,20.60168882560871,0.46928438088336305,0.011978945024776172,10.89458229828227,0.6018866173606016
82.0,20.60543236873449,0.4694648031500385,0.011975158776274251,10.894080545350949,0.6018956858077691
83.0,20.609176031228394,0.46964525694397946,0.011971372720279004,10.893578757912334,0.6019048457614228
84.0,20.61291981268704,0.46982574221924017,0.011967586856775318,10.893076936026949,0.6019139781094027
85.0,20.61666371270656,0.47000625892982023,0.01196380118574402,10.892575079755416,0.6019236991419096
86.0,20.620407730882626,0.47018680702964294,0.011960015707161868,10.892073189158438,0.6019337436400277
87.0,20.624151866810397,0.47036738647257276,0.011956230421001624,10.891571264296815,0.6019437355372037
88.0,20.627896120084582,0.47054799721240914,0.011952445327231902,10.89106930523143,0.6019534409828972
89.0,20.631640490299404,0.47072863920287805,0.01194866042581718,10.890567312023261,0.6019626581279635
90.0,20.635384977048613,0.47090931239765205,0.0119448757167178,10.89006528473338,0.601971430471479
91.0,20.639129579925456,0.47109001675032897,0.011941091199889913,10.88956322342294,0.601979934645363
92.0,20.642874298522727,0.4712707522144473,0.01193730687528536,10.889061128153191,0.6019885308407207
93.0,20.64661913243272,0.47145151874347585,0.011933522742851768,10.888558998985474,0.6019975384180908
94.0,20.650364081247265,0.471632316290819,0.011929738802532413,10.888056835981216,0.6020065709070067
95.0,20.654109144557708,0.4718131448098215,0.011925955054266225,10.887554639201939,0.6020156598028744
96.0,20.657854321954908,0.4719940042537538,0.011922171497987707,10.887052408709252,0.6020249995329771
97.0,20.661599613029253,0.47217489457582906,0.011918388133626988,10.886550144564858,0.6020342950605618
98.0,20.665345017370633,0.4723558157291916,0.011914604961109687,10.886047846830547,0.6020434947505923
99.0,20.669090534568497,0.47253676766691716,0.01191082198035696,10.885545515568202,0.6020528322354346
100.0,20.672836164211766,0.47271775034202435,0.011907039191285442,10.885043150839799,0.6020623240886857
101.0,20.676581905888906,0.47289876370745976,0.01190325659380722,10.884540752707402,0.6020720578517916
102.0,20.680327759187904,0.4730798077161118,0.011899474187829839,10.884038321233163,0.6020815843937819
103.0,20.684073723696255,0.4732608823207918,0.011895691973256219,10.883535856479332,0.6020908621784122
104.0,20.68781979900098,0.47344198747425975,0.011891909949984805,10.883033358508245,0.6021005378595222
105.0,20.691565984688623,0.4736231231292012,0.011888128117909303,10.882530827382327,0.6021104841729057
106.0,20.695312280345235,0.4738042892382413,0.011884346476918961,10.882028263164102,0.6021205408049638
107.0,20.699058685556395,0.47398548575393695,0.011880565026898328,10.881525665916179,0.6021307894316245
108.0,20.702805199907193,0.4741667126287819,0.011876783767727456,10.881023035701256,0.602141044358195
109.0,20.706551822982252,0.4743479698152037,0.011873002699281765,10.880520372582128,0.6021510341011082
110.0,20.7102985543657,0.47452925726556594,0.011869221821432165,10.880017676621677,0.6021623452765613
111.0,20.714045393641175,0.4747105749321696,0.011865441134045035,10.879514947882878,0.6021725814815968
112.0,20.717792340391874,0.47489192276724634,0.011861660636982246,10.879012186428797,0.6021818406415321
113.0,20.721539394200448,0.47507330072295995,0.011857880330101293,10.87850939232259,0.6021914413374042
114.0,20.725286554649127,0.4752547087514177,0.011854100213255206,10.878006565627505,0.6022010941263353
115.0,20.729033821319632,0.47543614680465557,0.011850320286292603,10.87750370640688,0.6022108441020592
116.0,20.73278119379319,0.47561761483465004,0.01184654054905795,10.877000814724147,0.6022208796516366
117.0,20.736528671650568,0.4757991127933061,0.011842761001391405,10.876497890642826,0.6022308713116759
118.0,20.740276254472043,0.47598064063246803,0.011838981643129012,10.875994934226531,0.6022409332318469
119.0,20.744023941837405,0.476162198303913,0.011835202445379145,10.875491945538137,0.6022512628027828
120.0,20.74777173332596,0.47634378575935843,0.011831423430036219,10.87498892464124,0.6022614513715329
121.0,20.751519628516547,0.4765254029504486,0.011827644604273567,10.874485871599731,0.6022715286966589
122.0,20.7552676269875,0.47670704982876755,0.011823865967920504,10.873982786477596,0.6022816457182335
123.0,20.759015728316683,0.4768887263458379,0.011820087520801652,10.873479669338911,0.6022916079784035
124.0,20.762763932081477,0.4770704324531094,0.011816309262737416,10.872976520247843,0.6023014317995933
125.0,20.766512237858787,0.47725216810197263,0.011812531193543878,10.872473339268653,0.6023110972645046
126.0,20.770260645225008,0.47743393324375055,0.011808753313033028,10.871970126465689,0.6023204302717935
127.0,20.774009153756076,0.477615727829705,0.011804975621013007,10.871466881903393,0.602329383156954
128.0,20.77775776302744,0.4777975518110324,0.011801198116565565,10.870963605646288,0.6023379878277565
129.0,20.781506472614065,0.47797940513886017,0.011797420798390567,10.870460297758974,0.6023461879955465
130.0,20.785255282090425,0.478161287764253,0.011793643666399907,10.869956958306144,0.6023541236372866
131.0,20.78900419103052,0.47834319963821215,0.0117898667205037,10.869453587352575,0.6023620817920956
132.0,20.792753199007862,0.4785251407116758,0.01178608995576235,10.868950184963037,0.602372053905521
133.0,20.796502305595475,0.47870711093551366,0.011782313348858783,10.868446751201866,0.6023819656863595
134.0,20.800251510365907,0.4788891102605279,0.01177853692632177,10.867943286134125,0.6023916998844888
135.0,20.80400081289122,0.47907113863746725,0.011774760688083315,10.867439789824962,0.6024013432052806
136.0,20.807750212742995,0.47925319601700705,0.011770984634074973,10.866936262339621,0.6024108234817043
137.0,20.811499709492324,0.47943528234975963,0.011767208764227731,10.866432703743437,0.602420522487257
138.0,20.81524930270982,0.4796173975862734,0.011763433078471766,10.865929114101833,0.6024303412001345
139.0,20.8189989919656,0.4797995416770328,0.011759657576480995,10.86542549348032,0.6024400697083689
140.0,20.822748776829307,0.4799817145724547,0.011755882213472988,10.864921841942667,0.6024498644727128
141.0,20.8264986568701,0.480163916222895,0.011752107030855804,10.864418159554598,0.602459802917788
142.0,20.830248631656644,0.4803461465786431,0.011748332028618354,10.863914446381932,0.6024696244042221
143.0,20.833998700757128,0.4805284055899272,0.01174455720675175,10.863410702490574,0.6024795576049685
144.0,20.837748863739243,0.480710693206907,0.011740782565249158,10.862906927946527,0.6024893635791321
145.0,20.841499120170216,0.48089300937967755,0.011737008104105676,10.862403122815882,0.6024988179723331
146.0,20.84524946961677,0.4810753540582738,0.011733233823318317,10.861899287164825,0.6025078580894415
147.0,20.84899991164516,0.48125772719266235,0.011729459722885771,10.86139542105963,0.6025167000485699
148.0,20.852750445821137,0.4814401287327474,0.011725685802808581,10.860891524566668,0.6025256875934514
149.0,20.85650107170998,0.4816225586283694,0.011721912063088707,10.860387597752398,0.6025351583383338
150.0,20.860251788876493,0.4818050168293022,0.011718138465657755,10.85988364068314,0.6025448659773308
151.0,20.864002596884973,0.48198750328525675,0.01171436504794005,10.85937965342554,0.602554455832239
152.0,20.867753495299244,0.482170017945879,0.011710591810074703,10.858875636046339,0.602563908755471
153.0,20.871504483682646,0.4823525607607532,0.011706818752102307,10.858371588612368,0.6025740272411504
154.0,20.87525556159804,0.48253513167939294,0.011703045874064651,10.85786751119055,0.602584334519806
155.0,20.879006728607777,0.4827177306512578,0.011699273176004726,10.857363403847904,0.6025945992108712
156.0,20.882757984273756,0.4829003576257344,0.01169550065796659,10.856859266651536,0.6026048403807898
157.0,20.886509328157366,0.4830830125521493,0.011691728319995312,10.856355099668654,0.6026150538801195
158.0,20.89026075981952,0.483265695379762,0.011687956133325626,10.855850902965727,0.6026251640940133
159.0,20.894012278820643,0.4834484060577724,0.011684184118159406,10.855346676609912,0.6026351512515229
160.0,20.89776388472068,0.48363114453531403,0.011680412282907827,10.854842420668698,0.6026450392632593
161.0,20.90151557707908,0.48381391076145247,0.011676640627650439,10.854338135209662,0.6026547623166145
162.0,20.905267355454807,0.48399670468519823,0.011672869152467303,10.85383382030048,0.6026637703070014
163.0,20.909019219406353,0.4841795262554886,0.011669097857438936,10.85332947600892,0.6026751527732556
164.0,20.912771168491716,0.4843623754212035,0.011665326742646078,10.852825102402841,0.602684829679762
165.0,20.916523202268404,0.4845452521311557,0.011661555808169457,10.852320699550196,0.6026939774702257
166.0,20.920275320293445,0.48472815633409283,0.011657785054089688,10.851816267519034,0.602703071821078
167.0,20.924027522123374,0.48491108797870225,0.011654014480487225,10.851311806377494,0.602712251064079
168.0,20.927779807314252,0.48509404701360714,0.011650244087442014,10.85080731619381,0.6027213755378839
169.0,20.931532175421644,0.4852770333873638,0.011646473875033479,10.850302797036312,0.6027303820951798
170.0,20.93528462600063,0.4854600470484664,0.011642703843340294,10.84979824897342,0.6027393916462596
171.0,20.939037158605807,0.4856430879453458,0.011638933992440304,10.849293672073648,0.6027483566428459
172.0,20.942789772791283,0.48582615602636753,0.011635164322410229,10.848789066405606,0.6027572377245578
173.0,20.946542468110685,0.48600925123983935,0.011631394833325653,10.848284432038,0.6027658576052052
174.0,20.950295244117157,0.48619237353399564,0.011627625525260784,10.847779769039624,0.6027740026046765
175.0,20.954048100363337,0.48637552285701474,0.011623856398288295,10.847275077479372,0.6027812022195326
176.0,20.9578010364014,0.48655869915700684,0.011620087452479177,10.846770357426225,0.602789303486133
177.0,20.96155405178302,0.48674190238201986,0.011616318687902577,10.846265608949267,0.6027985952861383
178.0,20.965307146059388,0.4869251324800441,0.011612550104625682,10.845760832117671,0.6028077905604553
179.0,20.969060318781217,0.4871083893989949,0.011608781702713497,10.845256027000705,0.6028161028265875
180.0,20.97281356949872,0.4872916730867332,0.011605013482228777,10.844751193667731,0.6028235210791116
181.0,20.976566897761636,0.4874749834910546,0.011601245427763644,10.84424633218748,0.6028310991002893
182.0,20.980320303119207,0.4876583205596863,0.011597477543253567,10.843741442628927,0.6028390285920509
183.0,20.9840737851202,0.48784168424030067,0.011593709839070649,10.84323652506163,0.6028470968179318
184.0,20.98782734331288,0.4880250744805002,0.011589942315300831,10.842731579555243,0.6028552537759002
185.0,20.991580977245036,0.4882084912278262,0.01158617493920984,10.84222660617871,0.6028635718195003
186.0,20.995334686463973,0.4883919344297544,0.01158240772676244,10.84172160500091,0.6028716909782625
187.0,20.999088470516504,0.4885754040337023,0.011578640694957084,10.8412165760918,0.6028797643218554
188.0,21.002842328948947,0.4887588999870176,0.011574873841070157,10.840711519521458,0.6028878332358487
189.0,21.006596261307145,0.48894242223699197,0.011571107145704602,10.840206435360155,0.6028959084387738
190.0,21.010350267136463,0.4891259707308502,0.011567340630786382,10.83970132367815,0.602903807207896
191.0,21.014104345981764,0.4893095454157524,0.011563574296428732,10.839196184545795,0.6029117791119806
192.0,21.017858497387426,0.4894931462387943,0.011559808142739018,10.838691018033538,0.6029199585427981
