k,PSNR,SSIM,mse,Log-Gradient,Angle
0.0,20.299509764124394,0.45480990887103734,0.0,10.935024847024305,0.6008034195683242
1.0,20.302657564014886,0.4549582906791427,0.010163561110678173,10.93460145610031,0.6012126453662422
2.0,20.306362999614006,0.45513462609373434,0.01214137612867234,10.934106177481176,0.6012189179363928
3.0,20.31009363024839,0.4553122991405308,0.01225746888163354,10.933607662616538,0.6012227296705128
4.0,20.31382656857092,0.45549011951562557,0.01226729892349482,10.933108816379454,0.6012304359478693
5.0,20.317560044118007,0.45566799477222747,0.012266520227492701,10.932609871315735,0.6012385544943395
6.0,20.32129381806136,0.4558459124049313,0.012263886083319176,10.932110862286406,0.6012469243304722
7.0,20.3250278449336,0.45602387000350236,0.01226076913088304,10.931611797288332,0.6012554034622339
8.0,20.32876211124938,0.45620186682480884,0.012257466234397683,10.931112679087919,0.6012638551667785
9.0,20.332496612475506,0.4563799026035176,0.012254073713664592,10.930613509027891,0.6012723113428383
10.0,20.336231346367676,0.4565579771806785,0.012250638929587608,10.930114287891152,0.6012808843282654
11.0,20.33996631178214,0.4567360904797752,0.012247175175143824,10.929615016146238,0.6012894301038126
12.0,20.343701507725008,0.4569142424189398,0.012243687868307368,10.929115694116183,0.6012980773539919
13.0,20.347436933693817,0.4570924329486954,0.012240191941810452,10.928616321975722,0.6013067288217508
14.0,20.351172589288954,0.4572706620263147,0.01223669040313944,10.928116899863502,0.6013153825831948
15.0,20.354908474090173,0.45744892960879646,0.012233183862300098,10.927617427920447,0.6013240130757495
16.0,20.358644587709236,0.45762723565484614,0.012229671936416102,10.927117906267895,0.6013327206533682
17.0,20.362380929782958,0.457805580124462,0.012226156539129474,10.926618335004534,0.6013414437065844
18.0,20.366117499953546,0.45798396297802285,0.012222639587996197,10.926118714186675,0.6013501376674981
19.0,20.3698542978669,0.4581623841761761,0.012219122275048289,10.925619043875006,0.6013587261123459
20.0,20.373591323171496,0.45834084367974204,0.012215603166858458,10.925119324135071,0.6013673547726256
21.0,20.37732857551752,0.4585193414496416,0.012212080784557662,10.924619555045625,0.6013760463810812
22.0,20.381066054556346,0.4586978774468642,0.012208555375531739,10.92411973668544,0.6013848055440897
23.0,20.38480375994009,0.45887645163242063,0.012205029918364406,10.923619869108277,0.6013935267875415
24.0,20.388541691321286,0.45905506396732676,0.012201504442372092,10.923119952367074,0.6014021970004153
25.0,20.39227984835265,0.4592337144125882,0.012197978926693845,10.922619986509902,0.6014109394681564
26.0,20.396018230686934,0.45941240292917707,0.012194453107780182,10.92211997158564,0.6014196883556199
27.0,20.39975683797678,0.4595911294780377,0.012190926441948746,10.921619907646916,0.6014284373598933
28.0,20.40349566987463,0.45976989402006135,0.01218739976746271,10.921119794744937,0.6014371640944145
29.0,20.40723472603268,0.4599486965160937,0.012183873092852777,10.920619632930745,0.6014458365915579
30.0,20.410974006102784,0.4601275369269206,0.012180346424791913,10.920119422255242,0.6014544683321487
31.0,20.41471350973646,0.46030641521327903,0.012176819768494168,10.919619162769264,0.6014630392789527
32.0,20.418453236584813,0.4604853313358374,0.01217329312802068,10.919118854523587,0.601471572332202
33.0,20.422193186298557,0.46066428525520714,0.012169766506515188,10.91861849756897,0.601480109917357
34.0,20.42593335852795,0.46084327693193505,0.012166239906386982,10.918118091956167,0.6014887152335501
35.0,20.4296737529228,0.46102230632649754,0.012162713329453654,10.917617637735953,0.6014972660707616
36.0,20.433414369132446,0.4612013733993136,0.012159186575427751,10.917117134961016,0.6015058935665446
37.0,20.437155206805755,0.46138047811072624,0.012155659643305299,10.916616583684043,0.6015144861809775
38.0,20.44089626559112,0.46155962042101656,0.012152132567501014,10.91611598395594,0.6015230485031487
39.0,20.444637545136427,0.4617388002903973,0.012148605207611933,10.91561533582768,0.6015316355897781
40.0,20.44837904508908,0.4619180176790057,0.01214507787354973,10.91511463935016,0.6015402255626175
41.0,20.452120765095962,0.46209727254691985,0.012141550566042887,10.914613894574346,0.6015487378827418
42.0,20.455862704803486,0.4622765648541441,0.012138023285666653,10.914113101551273,0.6015571673896546
43.0,20.459604863857518,0.46245589456061076,0.012134496032866737,10.913612260332048,0.6015655669842942
44.0,20.463347241903445,0.4626352616261838,0.01213096880797914,10.913111370967854,0.6015738843340012
45.0,20.467089838586126,0.4628146660106623,0.012127441611246677,10.912610433509954,0.601582131341432
46.0,20.470832653549902,0.46299410767376575,0.012123914385503589,10.912109448009083,0.6015903775097026
47.0,20.47457568643862,0.4631735865751556,0.012120387059784793,10.911608414515324,0.6015989409357558
48.0,20.478318936895576,0.4633531026744077,0.012116859759468811,10.91110733308017,0.6016075658753508
49.0,20.482062404563575,0.4635326559310416,0.012113332484719113,10.910606203755195,0.601616181135395
50.0,20.48580608908489,0.4637122463044981,0.01210980506362456,10.910105026594005,0.6016246550976254
51.0,20.489549990101263,0.46389187375415236,0.012106277601244117,10.909603801649055,0.6016333299016982
52.0,20.49329410725395,0.46407153823930253,0.01210275016419246,10.909102528972141,0.6016417735734055
53.0,20.49703844018366,0.464251239719182,0.012099222752673146,10.90860120861515,0.6016497243288067
54.0,20.50078298853058,0.46443097815295104,0.01209569536686516,10.90809984063005,0.601657359332527
55.0,20.50452775193439,0.464610753499703,0.01209216800692516,10.907598425068906,0.6016655351176683
56.0,20.50827273003424,0.4647905657184505,0.012088640672990057,10.907096961983873,0.6016746316044278
57.0,20.512017922468736,0.4649704147681451,0.012085113365179066,10.906595451427194,0.6016835674308021
58.0,20.515763328875995,0.46515030060766377,0.012081586083595688,10.906093893451205,0.6016923976804471
59.0,20.51950894889359,0.46533022319581147,0.012078058828329474,10.905592288108334,0.6017014666025415
60.0,20.523254782158563,0.4655101824913275,0.012074531599457415,10.9050906354511,0.6017105396618511
61.0,20.527000828307447,0.46569017845287286,0.012071004397045173,10.904588935532116,0.6017195266726144
62.0,20.530747086976234,0.46587021103903775,0.012067477221148279,10.904087188404088,0.6017284059772231
63.0,20.534493557800396,0.46605028020835065,0.012063950071812933,10.903585394119814,0.6017373244217241
64.0,20.538240240414886,0.46623038591926025,0.012060422949076905,10.903083552732186,0.6017461432029683
65.0,20.54198713445411,0.46641052813014455,0.012056895852970272,10.90258166429419,0.6017548563560813
66.0,20.545734239551972,0.4665907067993163,0.01205336878351586,10.902079728858908,0.6017634394937953
67.0,20.549481555341824,0.4667709218850106,0.01204984174072995,10.90157774647951,0.6017717880574094
68.0,20.55322908145651,0.46695117334539504,0.012046314724622564,10.901075717209268,0.6017795137852213
69.0,20.556976817528327,0.467131461138566,0.012042787735198021,10.900573641101543,0.601789650647378
70.0,20.560724763189064,0.46731178522254485,0.012039260772455087,10.900071518209792,0.6017985133357454
71.0,20.56447291806996,0.46749214555528723,0.012035733836387359,10.899569348587569,0.6018064913602365
72.0,20.568221281801744,0.46767254209467707,0.01203220692698348,10.899067132288522,0.6018143056925355
73.0,20.571969854014593,0.4678529747985221,0.012028680044227266,10.89856486936639,0.6018225727853658
74.0,20.575718634338184,0.4680334436245621,0.012025153188097956,10.898062559875015,0.6018309209039234
75.0,20.579467622401634,0.4682139485304666,0.012021626358570348,10.897560203868329,0.6018392748565906
76.0,20.58321681783354,0.4683944894738321,0.012018099555614815,10.897057801400361,0.6018477464278532
77.0,20.586966220261974,0.46857506641217994,0.012014572779197425,10.896555352525235,0.6018561209468881
78.0,20.590715829314483,0.4687556793029728,0.012011046029280086,10.896052857297175,0.601864364196705
79.0,20.594465644618055,0.4689363281035894,0.012007519305820504,10.895550315770492,0.601872323784023
80.0,20.598215665799174,0.4691170127713404,0.012003992608772227,10.895047727999602,0.601879583329092
81.0,20.601965892483776,0.46929773326346974,0.012000465938084699,10.894545094039014,0.6018873196983722
82.0,20.605716324297276,0.4694784895371407,0.011996939293703246,10.894042413943332,0.6018963833574004
83.0,20.609466960864545,0.4696592815494574,0.011993412675569094,10.893539687767259,0.6019055725573961
84.0,20.61321780180993,0.46984010925744396,0.011989886083619292,10.89303691556559,0.6019147077527541
85.0,20.616968846757246,0.47002097261805104,0.011986359517786796,10.892534097393222,0.6019245339696994
86.0,20.620720095329755,0.4702018715881689,0.011982832978000365,10.892031233305143,0.6019345921744743
87.0,20.624471547150208,0.4703828061246038,0.011979306464184585,10.891528323356445,0.601944592310195
88.0,20.62822320184082,0.47056377618410306,0.011975779976259829,10.891025367602309,0.6019542833408452
89.0,20.631975059023254,0.4707447817233305,0.011972253514142142,10.890522366098018,0.6019634758395737
90.0,20.635727118318663,0.47092582269888617,0.011968727077743383,10.89001931889895,0.601972231711494
91.0,20.639479379347637,0.47110689906729747,0.01196520066697097,10.889516226060582,0.6019807437385254
92.0,20.643231841730262,0.471288010785016,0.011961674281728042,10.889013087638485,0.6019894042945294
93.0,20.64698450508606,0.4714691578084265,0.011958147921913256,10.88850990368833,0.6019984297154477
94.0,20.650737369034033,0.47165034009384293,0.011954621587420828,10.888006674265883,0.6020074969259567
95.0,20.65449043319265,0.47183155759750334,0.01195109527814053,10.88750339942701,0.6020166050887386
96.0,20.65824369717982,0.4720128102755811,0.011947568993957563,10.887000079227672,0.6020259912729667
97.0,20.661997160612948,0.4721940980841685,0.011944042734752575,10.886496713723929,0.6020352941430852
98.0,20.665750823108887,0.47237542097929436,0.011940516500401639,10.885993302971938,0.6020445103189543
99.0,20.669504684283947,0.47255677891691344,0.011936990290776184,10.885489847027953,0.6020539062516198
100.0,20.673258743753912,0.4727381718529056,0.011933464105742989,10.88498634594833,0.6020634356218206
101.0,20.67701300113402,0.4729195997430875,0.011929937945164223,10.884482799789517,0.6020731966289389
102.0,20.68076745603897,0.47310106254319434,0.011926411808897275,10.88397920860806,0.6020826997665085
103.0,20.68452210808294,0.47328256020889703,0.011922885696794826,10.88347557246061,0.6020919970034624
104.0,20.688276956879537,0.4734640926957927,0.011919359608704954,10.882971891403907,0.6021017709823752
105.0,20.692032002041863,0.4736456599594047,0.011915833544470868,10.882468165494796,0.6021117570179891
106.0,20.695787243182462,0.4738272619551886,0.01191230750393112,10.881964394790215,0.6021218548458183
107.0,20.699542679913346,0.4740088986385245,0.011908781486919486,10.881460579347204,0.6021321723106252
108.0,20.703298311845984,0.4741905699647242,0.011905255493265144,10.8809567192229,0.6021423893000164
109.0,20.707054138591307,0.4743722758890274,0.011901729522792432,10.880452814474536,0.6021523400714438
110.0,20.710810159759706,0.47455401636660005,0.011898203575321073,10.879948865159447,0.6021642490544615
111.0,20.71456637496103,0.47473579135253846,0.011894677650666156,10.879444871335062,0.6021738489600695
112.0,20.718322783804584,0.4749176008018676,0.011891151748638022,10.878940833058916,0.6021831162606835
113.0,20.722079385899153,0.4750994446695385,0.011887625869042632,10.878436750388632,0.6021928666015685
114.0,20.725836180852944,0.4752813229104349,0.011884100011681224,10.87793262338194,0.6022025422267526
115.0,20.729593168273652,0.4754632354793625,0.011880574176350633,10.877428452096664,0.6022123756121324
116.0,20.73335034776843,0.47564518233106173,0.01187704836284329,10.87692423659073,0.6022224449720882
117.0,20.737107718943875,0.4758271634201978,0.011873522570947207,10.876419976922158,0.6022324475513384
118.0,20.740865281406048,0.47600917870136444,0.011869996800446123,10.875915673149072,0.6022426000667543
119.0,20.74462303476047,0.4761912281290854,0.011866471021732992,10.875411325328841,0.6022529484429434
120.0,20.74838097861211,0.4763733116578132,0.011862945258039301,10.874906933519604,0.6022631332202287
121.0,20.752139112565416,0.47655542924192607,0.011859419515757327,10.874402497779785,0.602273232911223
122.0,20.755897436224263,0.47673758083573214,0.01185589379466355,10.873898018167909,0.6022833759601665
123.0,20.759655949192,0.4769197663934657,0.011852368094529813,10.873393494742597,0.6022933366582969
124.0,20.763414651071436,0.4771019858692938,0.011848842415123247,10.87288892756257,0.602303170299396
125.0,20.76717354146483,0.4772842392173117,0.011845316756206831,10.87238431668665,0.6023128115635772
126.0,20.770932619973898,0.47746652639153614,0.011841791117539177,10.871879662173756,0.6023221036767988
127.0,20.774691886199808,0.47764884734592084,0.011838265498874996,10.871374964082905,0.6023310130505882
128.0,20.778451339743185,0.47783120203434315,0.011834739898921412,10.870870222473203,0.6023395799397682
129.0,20.782210980204113,0.4780135904106067,0.011831214316657155,10.870365437403839,0.6023477112281622
130.0,20.78597080718214,0.4781960124284477,0.011827688751940967,10.869860608934106,0.6023556267341955
131.0,20.789730820276233,0.4783784680415319,0.011824163204629767,10.869355737123394,0.6023638600813075
132.0,20.79349101908486,0.4785609572034477,0.011820637667082958,10.868850822031021,0.6023740999298498
133.0,20.797251403205912,0.4787434798677177,0.011817112121314128,10.868345863716012,0.6023839675732721
134.0,20.801011972236747,0.4789260359877863,0.011813586591060425,10.867840862238058,0.6023937157733723
135.0,20.80477272577418,0.47910862551703576,0.011810061076199902,10.86733581765695,0.6024033500745903
136.0,20.808533663414458,0.47929124840876725,0.011806535576610214,10.866830730032579,0.6024128619193722
137.0,20.812294784753313,0.47947390461621575,0.011803010092168153,10.86632559942493,0.6024226475907842
138.0,20.81605608938591,0.4796565940925392,0.011799484622749639,10.865820425894098,0.6024325013407033
139.0,20.819817576906864,0.4798393167908322,0.011795959164095,10.865315209500089,0.602442234486735
140.0,20.82357924691026,0.4800220726641126,0.011792433678839677,10.864809950301522,0.6024521170114796
141.0,20.827341098989613,0.48020486166532456,0.011788908204740167,10.864304648358813,0.6024620822619854
142.0,20.8311031327379,0.4803876837473462,0.011785382741730775,10.86379930373247,0.6024719402566039
143.0,20.83486534774756,0.4805705388629789,0.011781857289747838,10.863293916483109,0.6024819156075697
144.0,20.83862774361046,0.4807534269649533,0.01177833184872968,10.86278848667144,0.6024916799765946
145.0,20.842390319917932,0.48093634800593366,0.011774806418616364,10.862283014358276,0.6025010457862837
146.0,20.84615307626077,0.4811193019385074,0.011771280999349688,10.861777499604532,0.6025100562363621
147.0,20.849916012229194,0.4813022887151884,0.011767755590873178,10.86127194247122,0.6025189243907694
148.0,20.8536791274129,0.4814853082884267,0.0117642301931318,10.860766343019453,0.6025279833479497
149.0,20.857442421401018,0.48166836061059315,0.01176070480151297,10.860260701310418,0.6025376783985128
150.0,20.861205893782135,0.4818514456339922,0.011757179386965484,10.859755017405224,0.6025473868563557
151.0,20.86496954414429,0.4820345633108514,0.011753653982442644,10.859249291365286,0.6025569623112141
152.0,20.868733372074967,0.48221771359333016,0.011750128587927537,10.858743523252127,0.6025665564660444
153.0,20.872497377161107,0.4824008964335184,0.011746603203404446,10.85823771312736,0.6025768409826823
154.0,20.876261558989096,0.4825841117834287,0.011743077828858936,10.85773186105271,0.6025871661684244
155.0,20.880025917144764,0.48276735959500955,0.011739552464277492,10.857225967089995,0.6025974795030691
156.0,20.883790451213407,0.48295063982012953,0.011736027109647582,10.85672003130114,0.602607737490417
157.0,20.887555160779748,0.4831339524105913,0.011732501764957576,10.856214053748166,0.6026179651789896
158.0,20.891320045427978,0.4833172973181254,0.011728976396350359,10.855708034492231,0.6026280904437248
159.0,20.89508510474172,0.4835006744943892,0.011725451034092447,10.855201973595474,0.6026380746548202
160.0,20.898850338304058,0.48368408389096834,0.011721925681449901,10.854695871120228,0.6026479788935849
161.0,20.902615745697517,0.48386752545937867,0.01171840033844491,10.854189727128933,0.6026574781041661
162.0,20.906381326504075,0.4840509991510616,0.011714875005100118,10.853683541684124,0.6026677950818224
163.0,20.91014708030514,0.48423450491739284,0.01171134968143846,10.853177314848441,0.6026781793312498
164.0,20.9139130066816,0.48441804270966826,0.011707824367482814,10.85267104668463,0.6026877217645453
165.0,20.917679105213757,0.48460161247911904,0.011704299063256028,10.852164737255533,0.6026968493755284
166.0,20.921445375481373,0.4847852141769025,0.011700773768780731,10.851658386624099,0.6027059974278733
167.0,20.925211817063676,0.4849688477541039,0.01169724848407907,10.851151994853376,0.6027152386109721
168.0,20.928978429539306,0.48515251316173597,0.011693723209172707,10.850645562006516,0.602724333941339
169.0,20.932745212486367,0.48533621035074576,0.011690197944082504,10.850139088146774,0.6027333926466324
170.0,20.936512165482416,0.4855199392719986,0.011686672688828545,10.849632573337505,0.6027424165272687
171.0,20.940279288104445,0.48570369987630096,0.011683147443429793,10.849126017642172,0.6027514037943853
172.0,20.944046579928887,0.4858874921143783,0.011679622207904047,10.848619421124335,0.6027602400148581
173.0,20.94781404053164,0.4860713159368835,0.011676096982267795,10.848112783847663,0.6027687906094482
174.0,20.951581669488025,0.48625517129440715,0.011672571766535985,10.847606105875922,0.6027766156549471
175.0,20.955349466372823,0.4864390581374652,0.011669046560721822,10.847099387272987,0.602783725882731
176.0,20.95911743076026,0.48662297641649593,0.011665521364836775,10.84659262810283,0.6027926789622476
177.0,20.962885562223995,0.4868069260818704,0.011661996178890278,10.846085828429533,0.6028019654170539
178.0,20.96665386033714,0.4869909070838931,0.011658471002889635,10.845578988317278,0.6028109887937152
179.0,20.970422324672256,0.48717491937278784,0.011654945836839794,10.84507210783035,0.6028189608449522
180.0,20.974190954801337,0.487358962898714,0.011651420680743318,10.844565187033139,0.6028263035875604
181.0,20.97795975029583,0.4875430376117584,0.011647895513076295,10.844058225989116,0.6028340906377131
182.0,20.98172871072662,0.4877271434619348,0.011644370349497625,10.843551224762571,0.602842143052612
183.0,20.985497835664034,0.4879112803991852,0.0116408451945988,10.843044183418117,0.6028502518002322
184.0,20.989267124677852,0.48809544837338076,0.011637320045346247,10.842537102020424,0.6028585453044112
185.0,20.993036577337282,0.4882796473343283,0.011633794868084456,10.842029980633194,0.6028668279471998
186.0,20.99680619321099,0.48846387723174783,0.011630269689728944,10.841522819320748,0.602874938728293
187.0,21.000575971867082,0.4886481380153027,0.011626744519648846,10.841015618148138,0.6028830614871971
188.0,21.004345912873088,0.48883242963458057,0.011623219347866023,10.840508377180587,0.6028911869004648
189.0,21.008116015796013,0.48901675203909606,0.011619694170274626,10.840001096483437,0.6028992184418088
190.0,21.01188628020228,0.48920110517829274,0.011616169001054975,10.839493776122065,0.6029071139841858
191.0,21.01565670565776,0.48938548900154194,0.011612643840258964,10.838986416161958,0.6029152403441317
192.0,21.01942729172777,0.4895699034581491,0.011609118687932471,10.838479016668703,0.6029235388838351
193.0,21.023198037977075,0.489754348497343,0.011605593544114716,10.837971577707998,0.6029319286865359
