k,PSNR,SSIM,mse,Log-Gradient,Angle
0.0,20.299509764124394,0.45480990887103734,0.0,10.935024847024305,0.6008034195683242
1.0,20.302656095834493,0.45495822146706244,0.010158821275383496,10.934601653584943,0.6012126411065426
2.0,20.30635833512454,0.45513440540235023,0.012131037954491863,10.934106803476265,0.601218901643939
3.0,20.31008402970876,0.4553118440581457,0.012241440243276619,10.933608949674483,0.6012227021042624
4.0,20.313810291399,0.45548934704656235,0.012245565539817708,10.933110997209177,0.6012303912539266
5.0,20.317535349705878,0.4556668218794934,0.01223908377846815,10.932613178674753,0.6012384882537842
6.0,20.321258965885363,0.4558442560160452,0.012230751295517057,10.932115528964419,0.6012468330179894
7.0,20.32498109457622,0.4560216470117558,0.012221941474217464,10.931618056103206,0.6012552835722382
8.0,20.32870172240671,0.45619899408974013,0.012212951398300297,10.931120762884095,0.6012637037487116
9.0,20.3324208449609,0.45637629695120535,0.012203877495864287,10.930623650675471,0.60127212126326
10.0,20.336138460114075,0.4565535554039579,0.012194767187929986,10.93012672028527,0.6012806542146775
11.0,20.339854566844107,0.4567307693384328,0.0121856337842097,10.929629972206605,0.6012891545015117
12.0,20.343569164280503,0.4569079386399036,0.01217648271146517,10.92913340678668,0.6012977514066712
13.0,20.34728225204594,0.457085063226212,0.01216732892829885,10.928637024224091,0.6013063504323235
14.0,20.350993829867456,0.4572621430221144,0.012158175445043865,10.928140824681055,0.6013149482199915
15.0,20.354703897452975,0.4574391779522699,0.012149022864362077,10.927644808321816,0.6013235185009081
16.0,20.35841245454408,0.4576161679432145,0.012139870802670986,10.927148975290724,0.6013321544351253
17.0,20.36211950090893,0.45779311292294395,0.012130721179920263,10.9266533257092,0.6013408100324135
18.0,20.365825036322605,0.4579700128200108,0.01212157591566184,10.92615785965607,0.601349434056383
19.0,20.369529060565434,0.45814686756339534,0.01211243620088428,10.9256625772143,0.6013579551068433
20.0,20.373231573421844,0.4583236770824272,0.012103300597822482,10.925167478471447,0.6013664961610694
21.0,20.37693257467953,0.4585004413067093,0.012094167608220381,10.924672563528134,0.601375091177597
22.0,20.380632064128893,0.45867716016607046,0.012085037499290553,10.924177832484586,0.6013837578081477
23.0,20.384330041562627,0.4588538335905408,0.012075913248135797,10.923683285415864,0.6013923919675205
24.0,20.38802650677539,0.45903046151032734,0.012066794881595115,10.923188922395957,0.6014009644762927
25.0,20.39172145956354,0.45920704385578354,0.012057682375038545,10.92269474349377,0.6014096004285918
26.0,20.395414899725015,0.4593835805574105,0.012048575457601518,10.922200748778756,0.6014182420292606
27.0,20.39910682705919,0.45956007154585193,0.012039473587434782,10.921706938323885,0.6014268804071958
28.0,20.40279724136675,0.45973651675185784,0.012030377601852367,10.921213312200479,0.6014354945149517
29.0,20.406486142449694,0.45991291610631224,0.012021287506853858,10.920719870479445,0.6014440682396412
30.0,20.41017353011123,0.4600892695402119,0.01201220330657695,10.920226613231332,0.6014525795230911
31.0,20.413859404155737,0.46026557698466264,0.012003125003697563,10.919733540526368,0.6014610470297687
32.0,20.417543764388743,0.4604418383708831,0.01199405259973656,10.919240652434496,0.6014694575133108
33.0,20.421226610616905,0.4606180536302032,0.011984986095296178,10.918747949025402,0.6014778527822209
34.0,20.42490794264797,0.46079422269405407,0.011975925490243481,10.91825543036853,0.6014863188845891
35.0,20.428587760290778,0.4609703454939787,0.011966870783853657,10.917763096533104,0.6014947258483482
36.0,20.432266063355247,0.46114642196161704,0.011957821766905677,10.917270947590076,0.6015031793157263
37.0,20.43594285165235,0.4613224520287176,0.011948778445375084,10.916778983610065,0.6015116641588215
38.0,20.43961812499413,0.461498435627133,0.011939740832145598,10.916287204661721,0.6015200557654713
39.0,20.44329188319367,0.46167437268882017,0.011930708811966296,10.915795610813513,0.601528485035976
40.0,20.446964126065094,0.4618502631458321,0.011921682680436797,10.915304202133607,0.601536932226313
41.0,20.450634853423576,0.4620261069303306,0.0119126624357438,10.914812978689985,0.6015453028681778
42.0,20.45430406508533,0.4622019039745777,0.011903648075922034,10.914321940550474,0.6015536027834995
43.0,20.457971760867586,0.46237765421093924,0.011894639598878142,10.913831087782722,0.6015618431901278
44.0,20.461637940588634,0.4625533575718815,0.01188563700241053,10.913340420454219,0.6015700329810583
45.0,20.465302604067766,0.46272901398997107,0.011876640284225892,10.912849938632299,0.6015781119449805
46.0,20.468965751125335,0.46290462339788147,0.011867649383850928,10.912359642383528,0.6015861982519601
47.0,20.47262738158269,0.46308018572838167,0.01185866422640287,10.91186953177358,0.6015943522873521
48.0,20.47628749526222,0.4632557009143486,0.011849684936864086,10.911379606869296,0.6016027985021728
49.0,20.479946091987333,0.4634311688887596,0.0118407115128694,10.910889867737367,0.6016112421959935
50.0,20.48360317158247,0.46360658958469264,0.011831743768760651,10.910400314446367,0.6016195951641948
51.0,20.487258733873087,0.4637819629353275,0.011822781826271889,10.909910947063286,0.601627931237717
52.0,20.490912778685683,0.46395728887394516,0.011813825741513448,10.909421765654308,0.6016363446277281
53.0,20.494565305847768,0.46413256733393604,0.011804875512167204,10.908932770285466,0.6016444434208218
54.0,20.498216315187882,0.4643077982487827,0.011795931135892241,10.908443961022636,0.6016520568953397
55.0,20.501865806535573,0.4644829815520803,0.01178699261032712,10.907955337931549,0.6016594746591788
56.0,20.50551377972144,0.46465811717751343,0.011778059933092463,10.90746690107778,0.601667828879625
57.0,20.509160234577077,0.4648332050588795,0.011769133101793125,10.906978650526758,0.6016766547475797
58.0,20.512805170935113,0.46500824513008077,0.011760212114020122,10.906490586343757,0.6016853019604911
59.0,20.516448588629203,0.4651832373251083,0.01175129696735237,10.906002708593903,0.6016939268432361
60.0,20.520090487494016,0.465358181578069,0.01174238765935809,10.905515017342172,0.6017027387582402
61.0,20.52373086736526,0.4655330778231681,0.011733484187596144,10.90502751265339,0.6017115507761208
62.0,20.52736972807963,0.46570792599471306,0.011724586549617045,10.904540194592233,0.60172026150561
63.0,20.53100706947488,0.46588272602711117,0.011715694742963929,10.904053063223227,0.6017288743669995
64.0,20.534642891389773,0.46605747785488055,0.011706808765173469,10.90356611861075,0.6017375263542456
65.0,20.53827719366408,0.4662321814126357,0.011697928613776394,10.903079360819026,0.6017460715429563
66.0,20.541909976138612,0.4664068366350957,0.011689054286298241,10.902592789912136,0.601754510444978
67.0,20.545541238655197,0.46658144345708624,0.011680185780259807,10.902106405954004,0.6017628293107452
68.0,20.549170981056673,0.46675600181353155,0.011671323093177616,10.901620209008412,0.6017709184369987
69.0,20.552799203186915,0.46693051163946125,0.0116624662225643,10.901134199138985,0.6017785046046683
70.0,20.55642590489081,0.4671049728700072,0.011653615165928905,10.900648376409206,0.6017879407452406
71.0,20.56005108601427,0.46727938544041264,0.011644769920777207,10.9001627408824,0.601796847614448
72.0,20.563674746404224,0.46745374928601074,0.011635930484611942,10.899677292621751,0.6018046353705236
73.0,20.56729688590863,0.4676280643422471,0.011627096854932906,10.899192031690285,0.6018121806829732
74.0,20.570917504376453,0.4678023305446711,0.011618269029237276,10.898706958150884,0.6018200598952936
75.0,20.574536601657694,0.46797654782893244,0.011609447005019593,10.898222072066277,0.6018280782477992
76.0,20.578154177603363,0.46815071613078946,0.011600630779771977,10.897737373499044,0.6018360939167657
77.0,20.581770232065498,0.46832483538609865,0.011591820350984222,10.897252862511616,0.6018442792397234
78.0,20.585384764897153,0.46849890553082757,0.01158301571614369,10.89676853916627,0.6018523766570455
79.0,20.588997775952404,0.46867292650103876,0.011574216872735573,10.89628440352514,0.6018603933817448
80.0,20.59260926508636,0.4688468982329062,0.011565423818242786,10.895800455650203,0.6018682601961195
81.0,20.59621923215512,0.46902082066270817,0.011556636550146058,10.895316695603288,0.6018755820831433
82.0,20.599827677015824,0.46919469372682365,0.011547855065923927,10.894833123446073,0.601882449711074
83.0,20.603434599526636,0.46936851736173685,0.011539079363052672,10.894349739240086,0.6018906260718585
84.0,20.60703999954674,0.46954229150403987,0.011530309439006445,10.893866543046704,0.6018992995665183
85.0,20.610643876936315,0.46971601609042657,0.011521545291257066,10.893383534927153,0.6019081830560612
86.0,20.61424623155659,0.46988969105769596,0.011512786917274231,10.892900714942511,0.6019169661713759
87.0,20.617847063269792,0.47006331634274817,0.011504034314525274,10.8924180831537,0.6019265682421909
88.0,20.62144637193919,0.4702368918825994,0.011495287480475224,10.891935639621492,0.6019362079987708
89.0,20.625044157429045,0.47041041761435487,0.011486546412586831,10.891453384406514,0.6019457684354141
90.0,20.62864041960466,0.4705838934752385,0.011477811108320402,10.890971317569232,0.6019550124795937
91.0,20.632235158332346,0.470757319402572,0.011469081565133885,10.890489439169968,0.6019637698429204
92.0,20.63582837347944,0.4709306953337849,0.011460357780482712,10.89000774926889,0.6019721143915617
93.0,20.639420064914297,0.4711040212064115,0.011451639751819911,10.889526247926014,0.601980243935406
94.0,20.643010232506263,0.4712772969580887,0.011442927476595921,10.889044935201206,0.6019884857794083
95.0,20.64659887612575,0.4714505225265628,0.011434220952258668,10.888563811154174,0.601997108856592
96.0,20.650185995644165,0.47162369784968466,0.011425520176253407,10.888082875844484,0.6020057395758195
97.0,20.653771590933925,0.47179682286540586,0.011416825146022797,10.887602129331544,0.6020144353804374
98.0,20.657355661868472,0.4719698975117926,0.011408135859006862,10.887121571674609,0.6020233280890447
99.0,20.660938208322275,0.4721429217270085,0.011399452312642873,10.886641202932784,0.6020322309953345
100.0,20.664519230170818,0.4723158954493259,0.011390774504365412,10.886161023165021,0.6020410289671517
101.0,20.668098727290584,0.47248881861712216,0.011382102431606297,10.885681032430119,0.602049851067163
102.0,20.671676699559104,0.47266169116888346,0.011373436091794569,10.885201230786725,0.602058919763167
103.0,20.6752531468549,0.4728345130431994,0.011364775482356515,10.884721618293336,0.6020681063629675
104.0,20.678828069057523,0.47300728417876253,0.011356120600715608,10.884242195008287,0.6020773298925168
105.0,20.682401466047548,0.4731800045143775,0.011347471444292462,10.883762960989772,0.6020862402585491
106.0,20.685973337706546,0.47335267398895137,0.011338828010504984,10.883283916295824,0.602095144735686
107.0,20.689543683917133,0.4735252925414985,0.011330190296768147,10.882805060984326,0.6021045458622948
108.0,20.69311250456292,0.47369786011113985,0.011321558300494205,10.882326395113004,0.60211403608408
109.0,20.69667979952854,0.4738703766370988,0.011312932019092559,10.881847918739435,0.6021236268739899
110.0,20.700245568699636,0.4740428420587118,0.011304311449969923,10.881369631921043,0.6021334455728768
111.0,20.70380981196289,0.4742152563154154,0.011295696590530077,10.88089153471509,0.6021431071556255
112.0,20.707372529205973,0.4743876193467558,0.011287087438174201,10.880413627178696,0.6021524779877148
113.0,20.71093372031758,0.4745599310923871,0.011278483990300738,10.87993590936882,0.6021636673356403
114.0,20.71449338518744,0.4747321914920674,0.011269886244305435,10.879458381342266,0.6021729941982092
115.0,20.718051523706265,0.4749044004856602,0.011261294197581472,10.878981043155687,0.6021817967400135
116.0,20.721608135765806,0.47507655801313836,0.011252707847519364,10.878503894865583,0.6021908769753225
117.0,20.725163221258818,0.4752486640145846,0.011244127191507195,10.878026936528293,0.6022000317153186
118.0,20.728716780079083,0.4754207184301798,0.011235552226930522,10.877550168200012,0.6022092357765835
119.0,20.732268812121376,0.475592721200218,0.01122698293569821,10.877073589936346,0.602218712622704
120.0,20.735819317281504,0.4757646722651014,0.011218419309455155,10.876597201792592,0.6022281934631198
121.0,20.739368295456284,0.47593657156533303,0.011209861367518878,10.876121003824482,0.6022376341014514
122.0,20.74291574654355,0.4761084190415286,0.011201309107275218,10.87564499608759,0.6022474018800096
123.0,20.74646167044214,0.4762802146344092,0.011192762526106969,10.875169178637346,0.6022571001562433
124.0,20.750006067051903,0.4764519582848014,0.011184221621394057,10.874693551529013,0.6022666471861667
125.0,20.753548936273717,0.47662364993364137,0.011175686390513778,10.874218114817706,0.6022761532077655
126.0,20.757090278009464,0.4767952895219724,0.011167156830840729,10.873742868558379,0.602285665668365
127.0,20.76063009216203,0.4769668769909421,0.011158632939747216,10.873267812805835,0.6022949992700086
128.0,20.76416837863534,0.47713841228180787,0.01115011471460316,10.87279294761472,0.6023042311639817
129.0,20.767705137334303,0.4773098953359376,0.011141602152776514,10.872318273039523,0.6023132660906556
130.0,20.771240368164847,0.4774813260948023,0.011133095251633177,10.871843789134576,0.602321994118999
131.0,20.774774071033917,0.4776527044999797,0.011124594008537287,10.871369495954058,0.6023303863840771
132.0,20.77830624584948,0.4778240304931595,0.011116098419386187,10.87089539355197,0.6023384952461909
133.0,20.78183689252048,0.4779953040161324,0.011107608481385239,10.870421481982156,0.6023462544574109
134.0,20.785366010956913,0.47816652501080864,0.011099124175682483,10.869947761297981,0.602353794572862
135.0,20.788893601069756,0.4783376934191897,0.01109064549485555,10.869474231552582,0.6023612863240612
136.0,20.79241966277101,0.4785088091834037,0.01108217245621697,10.869000892799333,0.6023698432471881
137.0,20.795944195973696,0.47867987224566866,0.011073705057264118,10.868527745091457,0.6023792799063671
138.0,20.79946720059182,0.47885088254832225,0.01106524329549553,10.868054788482013,0.6023884784303474
139.0,20.80298867654041,0.4790218400338084,0.011056787168410567,10.867582023023909,0.6023976214077131
140.0,20.80650862373551,0.4791927446446729,0.011048336673509379,10.867109448769893,0.6024065768475901
141.0,20.81002704209417,0.4793635963235772,0.011039891801416096,10.866637065772293,0.6024155711236233
142.0,20.813543931534433,0.4795343950132856,0.01103145251639065,10.866164874082013,0.6024247334742489
143.0,20.817059291975365,0.4797051406566737,0.011023018853472694,10.865692873751357,0.6024339129751598
144.0,20.82057312333705,0.4798758331967224,0.01101459080951952,10.865221064832465,0.6024429917187362
145.0,20.824085425540545,0.4800464725765221,0.011006168382101144,10.864749447377328,0.6024522067449598
146.0,20.827596198507944,0.4802170587392786,0.010997751568790891,10.864278021437778,0.6024614828546125
147.0,20.831105442162343,0.4803875916282905,0.010989340367165371,10.863806787065489,0.6024706751862449
148.0,20.834613156427835,0.4805580711869791,0.01098093477480444,10.863335744311977,0.6024799703105678
149.0,20.838119341229536,0.48072849735886614,0.010972534789290977,10.862864893228602,0.6024891276114582
150.0,20.841623996493546,0.4808988700875858,0.010964140408211103,10.862394233866567,0.6024979709288084
151.0,20.845127122146998,0.48106918931687637,0.0109557516291537,10.861923766276913,0.6025063994487551
152.0,20.848628718117993,0.481239454990593,0.0109473684310399,10.861453490510424,0.6025146502581076
153.0,20.852128784335697,0.4814096670526898,0.010938990808026188,10.860983406617706,0.6025229855498682
154.0,20.85562732073022,0.4815798254472336,0.010930618779394573,10.860513514649332,0.60253151886034
155.0,20.85912432723272,0.4817499301184031,0.010922252342779113,10.860043814655716,0.6025406378658755
156.0,20.86261980377533,0.4819199810104812,0.010913891495816407,10.859574306687119,0.6025496147270438
157.0,20.866113750291216,0.48208997806785914,0.010905536236145614,10.859104990793636,0.6025584697239241
158.0,20.86960616671452,0.4822599212350422,0.010897186561408206,10.858635867025212,0.6025673144096506
159.0,20.873097052980405,0.4824298104566384,0.010888842469247964,10.85816693543163,0.6025768015878107
160.0,20.876586409025034,0.4825996456773704,0.010880503957310878,10.857698196062513,0.6025863504510884
161.0,20.880074234785567,0.48276942684206325,0.010872170986430446,10.857229648966396,0.6025958689754584
162.0,20.883560530200178,0.48293915389565756,0.0108638435886261,10.856761294192536,0.6026053470272571
163.0,20.887045295208033,0.48310882678319783,0.010855521763823227,10.856293131790094,0.602614772031736
164.0,20.890528529749297,0.48327844544984183,0.010847205509707568,10.85582516180807,0.6026241099024724
165.0,20.894010233765144,0.4834480098408505,0.010838894823966687,10.85535738429531,0.6026333650743102
166.0,20.89749040719775,0.4836175199016018,0.0108305897042895,10.854889799300498,0.6026425270055674
167.0,20.900969049990287,0.4837869755775741,0.010822290148366326,10.85442240687216,0.602651581276245
168.0,20.90444616208693,0.48395637681436404,0.010813996153888554,10.853955207058668,0.6026594422810523
169.0,20.90792174343285,0.4841257235576693,0.010805707718548666,10.85348819990823,0.6026701844864307
170.0,20.91139579397423,0.4842950157533014,0.010797424840039933,10.853021385468901,0.6026795591258324
171.0,20.914868313658236,0.4844642533471804,0.010789147516056393,10.852554763788577,0.6026883793593051
172.0,20.91833930243304,0.4846334362853358,0.010780875744292621,10.852088334914992,0.6026967559167797
173.0,20.92180876024781,0.4848025645139051,0.010772609522443534,10.851622098895726,0.6027051337544908
174.0,20.925276687052726,0.4849716379791352,0.0107643488482044,10.851156055778198,0.6027135495891419
175.0,20.928743082798942,0.4851406566273823,0.010756093719270495,10.85069020560967,0.6027218961012604
176.0,20.932207947438634,0.48530962040511955,0.010747844133337073,10.850224548437245,0.602730158871147
177.0,20.935671280924957,0.48547852925891277,0.010739600088099153,10.84975908430787,0.6027384641041574
178.0,20.93913308321207,0.48564738313545425,0.010731361581251346,10.849293813268329,0.6027467188943051
179.0,20.942593354255123,0.4858161819815381,0.010723128610487766,10.848828735365254,0.6027549380758428
180.0,20.946052094010273,0.4859849257440682,0.010714901173501844,10.848363850645113,0.6027630048321644
181.0,20.949509302434667,0.4861536143700576,0.010706679267986153,10.847899159154219,0.6027707743077863
182.0,20.95296497948644,0.48632224780663025,0.010698462891632277,10.847434660938722,0.6027779208445944
183.0,20.956419125124725,0.4864908260010223,0.01069025204213062,10.846970356044622,0.6027844468648651
184.0,20.959871739309662,0.4866593489005693,0.010682046717170388,10.846506244517753,0.6027925628183283
185.0,20.963322822002368,0.48682781645273293,0.01067384691443927,10.846042326403794,0.6028011219436725
186.0,20.966772373164964,0.4869962286050704,0.010665652612261383,10.845578601747409,0.6028094439221482
187.0,20.97022039276055,0.4871645853052528,0.010657463820525521,10.845115070593623,0.6028169744554859
188.0,20.97366688075324,0.4873328865010691,0.01064928053199532,10.844651732987426,0.6028238181028284
189.0,20.97711183710812,0.4875011321404014,0.010641102736740906,10.844188588973553,0.6028307203285116
190.0,20.980555261791277,0.48766932217125697,0.010632930445892514,10.843725638596537,0.6028379051582541
191.0,20.9839971547698,0.487837456541745,0.010624763645628345,10.843262881900085,0.6028452501743911
192.0,20.987437516011745,0.48800553520008605,0.010616602350515746,10.84280031892871,0.6028526283479511
193.0,20.99087634548617,0.4881735580946127,0.010608446558270916,10.842337949726764,0.6028601423147504
