k,PSNR,SSIM,mse,Log-Gradient,Angle
0.0,20.299509764124394,0.45480990887103734,0.0,10.935024847024305,0.6008034195683242
1.0,20.302657354190945,0.4549582807877481,0.010162883720574768,10.934601484323684,0.6012126447574715
2.0,20.30636233290792,0.45513459454982336,0.012139898385955064,10.934106266956109,0.601218915607817
3.0,20.31009225784348,0.45531223408616706,0.012255177300055849,10.933607846602612,0.6012227257301512
4.0,20.313824241430694,0.45549000907610937,0.012264191137228823,10.933109128171953,0.6012304295584029
5.0,20.317556513102517,0.45566782706219017,0.01226259615118813,10.93261034423024,0.6012385450234268
6.0,20.321288833942855,0.45584567552915184,0.012259146067224991,10.932111529656472,0.601246911272633
7.0,20.325021158399586,0.4560235520570833,0.012255213631857638,10.931612692464931,0.6012553863166482
8.0,20.32875347290359,0.45620145589323174,0.01225109574109735,10.931113835439229,0.6012638335103143
9.0,20.332485772838382,0.4563793867626789,0.012246888730660972,10.93061495993918,0.6012722841542201
10.0,20.33621805587658,0.4565573444969095,0.012242639970488484,10.93011606676471,0.6012808514031637
11.0,20.339950320791615,0.4567353290098614,0.012238362756400063,10.929617156401322,0.6012893906282103
12.0,20.343682566506928,0.45691334021014707,0.012234062508079084,10.929118229188981,0.6012980307084174
13.0,20.34741479243758,0.4570913780387666,0.0122297541624047,10.928619285319323,0.6013066746376566
14.0,20.35114699810162,0.4572694424435066,0.012225440727724548,10.928120324947871,0.6013153204280167
15.0,20.354879182996605,0.45744753337188526,0.012221122813451226,10.92762134823241,0.6013239422982106
16.0,20.358611346652257,0.45762565077314754,0.01221680003706326,10.927122355311104,0.6013326395700637
17.0,20.362343488623516,0.4578037945978369,0.012212474313557256,10.926623346299449,0.6013413530137092
18.0,20.36607560847085,0.4579819647969115,0.012208147561228838,10.926124321270548,0.60135003696206
19.0,20.369807705758586,0.4581601613216,0.012203820972415968,10.925625280301864,0.6013586156196599
20.0,20.373539780053722,0.4583383841233179,0.0121994931135282,10.925126223475694,0.6013672317224722
21.0,20.37727183092518,0.4585166331536062,0.012195162503385423,10.924627150887538,0.6013759094919973
22.0,20.3810038579432,0.4586949083640836,0.012190829392658682,10.924128062632878,0.6013846554680221
23.0,20.3847358606789,0.4588732097064105,0.012186496760173873,10.923628958782173,0.601393364299815
24.0,20.38846783870397,0.45905153713226765,0.012182164635349255,10.923129839405041,0.6014020200347334
25.0,20.392199791590436,0.45922989059333835,0.012177832997241102,10.922630704566219,0.6014107475914806
26.0,20.39593171891052,0.4594082700412942,0.012173501581713422,10.922131554331232,0.6014194810541104
27.0,20.399663620236474,0.45958667542778536,0.012169169845799927,10.92163238876933,0.6014282140718675
28.0,20.403395495140494,0.45976510670443455,0.012164838628082946,10.92113320794834,0.6014369249592474
29.0,20.407127343194695,0.4599435638228307,0.012160507937187578,10.920634011935887,0.6014455833581831
30.0,20.410859163971008,0.4601220467345232,0.012156177779880373,10.920134800799456,0.6014541975463321
31.0,20.41459095704117,0.4603005553910211,0.012151848161468679,10.919635574606433,0.6014627536232945
32.0,20.41832272197666,0.4604790897437878,0.012147519086106659,10.919136333424136,0.601471268498889
33.0,20.42205445834871,0.46065764974424733,0.012143190557030847,10.918637077319845,0.6014797844005908
34.0,20.425786165728272,0.46083623534376494,0.012138862576743297,10.918137806360816,0.6014883722142264
35.0,20.429517843685986,0.46101484649366653,0.012134535147154351,10.91763852061431,0.6014969021823364
36.0,20.43324949179217,0.4611934831452263,0.012130208067158898,10.917139220149483,0.6015055045860898
37.0,20.436981109616855,0.461372145249664,0.01212588133720228,10.916639905035472,0.601514082345323
38.0,20.440712696729726,0.4615508327581539,0.012121554989083835,10.916140575339606,0.6015226189915223
39.0,20.44444425270013,0.4617295456218143,0.012117228886443928,10.91564123112927,0.6015311823861538
40.0,20.44817577709707,0.46190828379171595,0.012112903337608073,10.915141872471757,0.6015397535598507
41.0,20.451907269489222,0.4620870472188692,0.012108578343397671,10.914642499434406,0.6015482452549225
42.0,20.4556387294449,0.4622658358542437,0.012104253904481149,10.914143112084604,0.6015566571608664
43.0,20.459370156532085,0.4624446496487466,0.0120999300213977,10.913643710489799,0.6015650323242512
44.0,20.463101550318378,0.4626234885532363,0.012095606694576844,10.913144294717489,0.6015733325523729
45.0,20.466832910371053,0.4628023525185187,0.012091283924355345,10.912644864835235,0.6015815549119693
46.0,20.470564236257015,0.46298124149534603,0.01208696165355246,10.912145420910056,0.6015897752050264
47.0,20.47429552754282,0.46316015543441935,0.012082639811099256,10.911645963008295,0.6015982828519589
48.0,20.47802678379465,0.4633390942863825,0.01207831852277298,10.911146491197684,0.6016068764064498
49.0,20.48175800457834,0.4635180580018248,0.012073997788832166,10.910647005546027,0.6016154730718992
50.0,20.48548918945936,0.4636970465312907,0.012069677435865928,10.91014750612314,0.6016239214080207
51.0,20.489220338002838,0.46387605982526664,0.012065357571758254,10.909647992997655,0.6016325601002565
52.0,20.492951449773514,0.4640550978341782,0.012061038262085265,10.90914846623753,0.6016410058917866
53.0,20.496682524335803,0.46423416050841526,0.012056719507146702,10.908648925910796,0.6016489754253332
54.0,20.500413561253733,0.4644132477983008,0.012052401307218047,10.908149372085552,0.6016565969742077
55.0,20.504144560090985,0.4645923596541044,0.012048083662552727,10.907649804829965,0.6016645744107856
56.0,20.50787552041087,0.46477149602604745,0.0120437665733847,10.907150224212279,0.6016736481835536
57.0,20.511606441776358,0.4649506568642991,0.012039450039930578,10.9066506303008,0.6016825736347373
58.0,20.51533732375004,0.4651298421189723,0.012035134062391595,10.906151023163915,0.6016913519517468
59.0,20.519068165894147,0.4653090517401271,0.012030818640955275,10.905651402870076,0.6017003789592892
60.0,20.522798967770555,0.4654882856777706,0.012026503775796898,10.905151769487812,0.6017094158065676
61.0,20.526529728940773,0.4656675438818561,0.012022189467080804,10.904652123085723,0.6017183837909534
62.0,20.53026044896598,0.4658468263022872,0.01201787571496141,10.90415246373248,0.6017272313489915
63.0,20.533991127406942,0.46602613288891176,0.012013562519584199,10.903652791496828,0.6017361079518719
64.0,20.537721763824102,0.46620546359152243,0.01200924988108653,10.903153106447586,0.6017449176081181
65.0,20.541452357777533,0.4663848183598627,0.012004937799598303,10.902653408653647,0.6017535885406599
66.0,20.545182908826945,0.4665641971436205,0.012000626275242626,10.902153698183977,0.6017621689885456
67.0,20.548913416531693,0.46674359989243364,0.0119963153081363,10.90165397510761,0.6017705112963151
68.0,20.552643880450766,0.466923026555885,0.01199200489839022,10.901154239493666,0.6017783599396042
69.0,20.556374300142796,0.4671024770835044,0.011987695046109829,10.900654491411327,0.6017879811918707
70.0,20.560104675166052,0.46728195142476875,0.01198338575139545,10.900154730929854,0.6017971257847538
71.0,20.563835005078445,0.4674614495291056,0.01197907701434248,10.899654958118582,0.6018051232695133
72.0,20.56756528943753,0.4676409713458847,0.011974768835041725,10.899155173046921,0.6018128848673708
73.0,20.571295527800487,0.4678205168244263,0.011970461213579463,10.898655375784353,0.6018210571938027
74.0,20.575025719724167,0.4680000859139966,0.011966154150037824,10.898155566400435,0.6018293442565954
75.0,20.57875586476502,0.46817967856380904,0.011961847644494688,10.897655744964798,0.6018376255120362
76.0,20.58248596247918,0.46835929472302656,0.01195754169702392,10.89715591154715,0.6018460729417702
77.0,20.586216012422383,0.4685389343407553,0.011953236307695373,10.896656066217268,0.6018544210004299
78.0,20.589946014150033,0.46871859736605465,0.011948931476575176,10.896156209045012,0.6018626485953912
79.0,20.593675967217166,0.46889828374792925,0.011944627203725433,10.895656340100306,0.6018706851460539
80.0,20.597405871178452,0.46907799343532464,0.011940323489204532,10.895156459453155,0.6018780221874422
81.0,20.6011357255882,0.4692577263771476,0.011936020333067097,10.894656567173639,0.6018852020379676
82.0,20.604865530000392,0.4694374825222399,0.011931717735363896,10.894156663331911,0.6018943061577698
83.0,20.60859528396861,0.46961726181939384,0.011927415696141983,10.893656747998195,0.6019033980849386
84.0,20.6123249870461,0.4697970642173579,0.011923114215444607,10.893156821242798,0.6019125208492692
85.0,20.616054638785744,0.4699768896648191,0.01191881329331124,10.892656883136093,0.6019220330431175
86.0,20.619784238740063,0.47015673811041175,0.011914512929777469,10.892156933748533,0.6019320457127669
87.0,20.623513786461235,0.47033660950272665,0.01191021312487512,10.891656973150642,0.6019420159915683
88.0,20.627243281501055,0.4705165037902927,0.011905913878632032,10.891157001413024,0.6019517448262192
89.0,20.630972723410984,0.4706964209215949,0.011901615191072214,10.890657018606351,0.6019610085529722
90.0,20.634702111742115,0.4708763608450583,0.011897317062215734,10.890157024801374,0.6019698124020872
91.0,20.638431446045175,0.47105632350906795,0.0118930194920786,10.889657020068919,0.6019783234793111
92.0,20.642160725870554,0.4712363088619396,0.011888722480672844,10.889157004479884,0.6019867980596744
93.0,20.645889950768264,0.47141631685195345,0.01188442602800647,10.888656978105244,0.6019957543074852
94.0,20.64961912028798,0.471596347427328,0.011880130134083322,10.888156941016046,0.6020047233132536
95.0,20.653348233979003,0.47177640053623543,0.01187583479890312,10.887656893283415,0.6020137747379036
96.0,20.657077291390276,0.47195647612679165,0.011871540022461439,10.887156834978546,0.6020230160821151
97.0,20.66080629207041,0.4721365741470649,0.011867245804749644,10.886656766172715,0.6020322948901805
98.0,20.664535235567634,0.4723166945450686,0.01186295214575485,10.88615668693727,0.602041466686655
99.0,20.668264121429818,0.4724968372687659,0.01185865904545991,10.885656597343628,0.6020506842149029
100.0,20.67199294920451,0.47267700226607046,0.011854366503843377,10.885156497463289,0.602060133978259
101.0,20.675721718438858,0.47285718948484007,0.01185007452087951,10.884656387367823,0.6020697742793742
102.0,20.67945042867969,0.4730373988728847,0.011845783096538231,10.884156267128876,0.6020793376314086
103.0,20.683179079473458,0.47321763037795944,0.011841492230785112,10.88365613681817,0.6020885900036707
104.0,20.686907670366264,0.47339788394777244,0.01183720192358132,10.883155996507497,0.6020980776119452
105.0,20.690636200903853,0.4735781595299746,0.011832912174883758,10.882655846268726,0.6021079466227152
106.0,20.694364670631625,0.4737584570721731,0.011828622984644876,10.882155686173803,0.6021179228074979
107.0,20.698093079094605,0.4739387765219185,0.0118243343528128,10.881655516294746,0.6021280249020922
108.0,20.70182142583748,0.47411911782670946,0.01182004627933127,10.881155336703648,0.6021383367292049
109.0,20.70554971040458,0.4742994809339982,0.011815758764139738,10.880655147472673,0.6021483425992934
110.0,20.709277932339866,0.4744798657911808,0.011811471807173289,10.880154948674067,0.6021585887773443
111.0,20.713006091186976,0.47466027234560676,0.011807185408362753,10.879654740380142,0.6021700872060672
112.0,20.716734186489155,0.4748407005445691,0.011802899567634676,10.87915452266329,0.602179134269737
113.0,20.720462217789326,0.47502115033531633,0.011798614284911387,10.878654295595975,0.6021885831164466
114.0,20.724190184630032,0.47520162166504304,0.011794329560111045,10.878154059250738,0.602198205947866
115.0,20.727918086553487,0.4753821144808918,0.01179004539314768,10.87765381370019,0.6022078234531838
116.0,20.731645923101528,0.4755626287299532,0.011785761783931278,10.87715355901702,0.6022177468229842
117.0,20.73537369381566,0.47574316435927244,0.011781478732367807,10.876653295273984,0.6022277219746146
118.0,20.739101398237022,0.4759237213158391,0.0117771962383593,10.876153022543924,0.6022376440179869
119.0,20.742829035906396,0.4761042995465931,0.011772914274406495,10.875652740898964,0.6022478955189242
120.0,20.746556606364233,0.4762848989984277,0.011768632859690743,10.875152450411841,0.6022580924181019
121.0,20.7502841091506,0.47646551961817857,0.01176435200290911,10.874652151155624,0.6022681392948127
122.0,20.754011543805237,0.47664616135263804,0.011760071703957833,10.874151843203451,0.6022781732937472
123.0,20.75773890986751,0.47682682414854227,0.011755791962728754,10.873651526628535,0.6022881540149009
124.0,20.761466206876463,0.4770075079525788,0.01175151277910962,10.873151201504163,0.6022979659372575
125.0,20.765193434370754,0.4771882127113875,0.011747234152984055,10.872650867903696,0.6023076448442991
126.0,20.768920591888715,0.47736893837155275,0.011742956084231902,10.872150525900565,0.6023170558843896
127.0,20.772647678968312,0.47754968487961563,0.01173867857272928,10.871650175568282,0.6023260953499158
128.0,20.776374695147158,0.47773045218205823,0.011734401618273434,10.871149816980425,0.6023347705175629
129.0,20.780101639962524,0.4779112402253219,0.011730125218962485,10.870649450210626,0.6023431127998703
130.0,20.783828512951338,0.4780920489557912,0.011725849374775566,10.870149075332591,0.6023510772303625
131.0,20.787555313650152,0.4782728783198018,0.011721574085690255,10.869648692420098,0.6023588839912392
132.0,20.79128204159519,0.4784537282636437,0.011717299351682534,10.869148301546996,0.6023679172748733
133.0,20.795008696322302,0.47863459873355113,0.011713025140166193,10.868647902786496,0.602377943279706
134.0,20.798735277367015,0.47881548967570997,0.011708751481692736,10.86814749621258,0.6023876540884362
135.0,20.802461784264494,0.4789964010362575,0.011704478376799771,10.86764708189933,0.6023972954001541
136.0,20.806188216549554,0.4791773327612816,0.011700205825487506,10.86714665992089,0.6024067718076648
137.0,20.809914573756657,0.47935828479682113,0.011695933827755882,10.866646230351485,0.6024162982309325
138.0,20.81364085541992,0.4795392570888595,0.011691662383604142,10.866145793265408,0.6024260207357757
139.0,20.81736706107311,0.47972024958333886,0.011687391493031095,10.865645348737033,0.6024357397494734
140.0,20.82109319024964,0.4799012622261479,0.01168312111896977,10.86514489683928,0.602445396891582
141.0,20.82481924248258,0.4800822949631221,0.011678851287418555,10.864644437646358,0.6024552276182558
142.0,20.828545217304644,0.4802633477400575,0.011674582006021386,10.864143971232885,0.6024650594597786
143.0,20.8322711142482,0.48044442050268477,0.011670313274839148,10.863643497673545,0.6024748400037218
144.0,20.83599693284527,0.48062551319670316,0.011666045093935096,10.863143017043098,0.6024847149400349
145.0,20.839722672627516,0.4808066257677486,0.011661777463374618,10.86264252941638,0.6024942871027131
146.0,20.843448333126275,0.4809877581614172,0.011657510383225133,10.862142034868299,0.6025034282879728
147.0,20.847173913872513,0.4811689103232495,0.011653243853556199,10.861641533473831,0.6025122916988568
148.0,20.850899414396864,0.4813500821987404,0.011648977874439132,10.861141025308035,0.6025211095901732
149.0,20.8546248342296,0.4815312737333377,0.011644712445947296,10.860640510446036,0.6025300906980926
150.0,20.85835017290066,0.4817124848724328,0.011640447539400009,10.860139988962858,0.6025398328947195
151.0,20.862075429939637,0.48189371556137334,0.011636183173553232,10.859639460933723,0.6025494179020697
152.0,20.865800604875766,0.4820749657454595,0.011631919358044444,10.859138926433976,0.6025588609116787
153.0,20.86952569723794,0.48225623536994017,0.01162765609298634,10.858638385539043,0.602568461993783
154.0,20.873250706554714,0.48243752438001297,0.011623393378493153,10.85813783832442,0.6025786822266861
155.0,20.876975632354295,0.4826188327208345,0.011619131214680521,10.857637284865676,0.6025888854805962
156.0,20.880700474164527,0.4828001603375023,0.011614869601665448,10.857136725238457,0.6025990880185171
157.0,20.884425231512928,0.48298150717507604,0.01161060853956607,10.856636159518477,0.6026092194798084
158.0,20.88814990392666,0.4831628731785574,0.01160634800986743,10.856135587781,0.6026193160300993
159.0,20.891874490932555,0.48334425829290417,0.011602088012386803,10.85563501010137,0.602629312573537
160.0,20.89559899205707,0.4835256624630269,0.011597828565893026,10.855134426555532,0.6026391721610345
161.0,20.89932340682634,0.48370708563378856,0.011593569670539596,10.8546338372195,0.6026489555968443
162.0,20.90304773476617,0.4838885277499954,0.011589311326480894,10.854133242169372,0.6026581900239738
163.0,20.90677197540197,0.4840699887564168,0.011585053533872052,10.853632641481308,0.6026686881423653
164.0,20.91049612825886,0.4842514685977677,0.011580796292868598,10.853132035231551,0.6026788273039149
165.0,20.914220192861585,0.48443296721871354,0.011576539603626323,10.852631423496412,0.6026882394100913
166.0,20.917944168734547,0.48461448456387507,0.011572283466301169,10.85213080635228,0.6026972582133439
167.0,20.921668055401824,0.4847960205778247,0.011568027881049091,10.851630183875614,0.6027062964426053
168.0,20.92539185238713,0.484977575205084,0.011563772848025865,10.851129556142949,0.6027154221133378
169.0,20.929115559213848,0.48515914839013036,0.011559518367386895,10.850628923230893,0.6027244029836006
170.0,20.932839175405018,0.4853407400773902,0.01155526443928717,10.850128285216128,0.6027333519386707
171.0,20.93656270048332,0.4855223502112475,0.011551011063881038,10.849627642175411,0.602742270916808
172.0,20.94028613397112,0.4857039787360316,0.011546758241322013,10.849126994185571,0.6027511513508893
173.0,20.94400947539043,0.4858856255960276,0.011542505971762677,10.848626341323513,0.6027598948790369
174.0,20.9477327242629,0.48606729073547045,0.011538254255354572,10.848125683666215,0.6027683678702066
175.0,20.951455880109876,0.4862489740985561,0.011534003092247834,10.847625021290726,0.602776181067006
176.0,20.955178942452328,0.48643067562942016,0.011529752482591254,10.847124354274174,0.6027832203381013
177.0,20.958901910810898,0.48661239527216277,0.011525502426532042,10.846623682693757,0.6027918698121792
178.0,20.962624784705902,0.4867941329708276,0.01152125292421563,10.84612300662675,0.6028010608566182
179.0,20.966347563657294,0.4869758886694166,0.011517003975785601,10.8456223261505,0.6028100560013582
180.0,20.9700702471847,0.48715766231188146,0.011512755581383436,10.845121641342429,0.6028180474263635
181.0,20.973792834807394,0.4873394538421303,0.011508507737681604,10.844620952279872,0.6028253079384459
182.0,20.977515326044323,0.487521263204022,0.01150426042535729,10.844120259039308,0.6028329346707919
183.0,20.981237720414082,0.4877030903413635,0.011500013666183218,10.843619561698295,0.6028408435945084
184.0,20.984960017434933,0.4878849351979262,0.011495767460323403,10.843118860334464,0.6028488436122112
185.0,20.9886822166248,0.4880667977174246,0.011491521791505317,10.842618155025278,0.6028569739690123
186.0,20.99240431750127,0.488248677843532,0.011487276646694754,10.842117445847242,0.6028651887854146
187.0,20.996126319581577,0.48843057551986907,0.011483032051947877,10.841616732877984,0.6028732054821377
188.0,20.99984822238264,0.4886124906900175,0.011478788010952517,10.841116016195453,0.6028812238091237
189.0,21.00357002542101,0.4887944232975032,0.011474544513521296,10.840615295877734,0.6028892235092899
190.0,21.00729172821293,0.4889763732858184,0.011470301556305138,10.840114572003005,0.6028971962084367
191.0,21.01101333027428,0.4891583405983932,0.01146605915311594,10.83961384464945,0.6029050157510688
192.0,21.01473483112063,0.48934032517862325,0.011461817304141926,10.83911311389533,0.6029129467097669
193.0,21.018456230267187,0.48952232696985587,0.011457576009565403,10.83861237981898,0.6029210686236316
