k,PSNR,SSIM,mse,Log-Gradient,Angle
0.0,20.299509764124394,0.45480990887103734,0.0,10.935024847024305,0.6008034195683242
1.0,20.302657144394978,0.45495827089767177,0.010162206420760225,10.934601512543296,0.6012126441487821
2.0,20.30636166631869,0.4551345630114385,0.01213842093026058,10.934106356415349,0.6012189132796016
3.0,20.310090885738468,0.45531216904600796,0.012252886310833747,10.933608030548449,0.6012227217905651
4.0,20.3138219149008,0.4554898986655403,0.012261084357343813,10.933109439882605,0.6012304231704763
5.0,20.31755298316851,0.455667659403497,0.012258673603912579,10.932610816999768,0.6012385355551746
6.0,20.321283851571046,0.4558454387363668,0.0122544082113428,10.932112196792438,0.6012468982189715
7.0,20.32501447450492,0.4560232342361577,0.012249661032659018,10.931613587287842,0.6012553691771618
8.0,20.328744838350666,0.45620104514210147,0.012244728995560285,10.931114991282316,0.601263811862282
9.0,20.332474938441933,0.4563788711713057,0.012239708451566364,10.930616410148277,0.6012722569770753
10.0,20.336204772401786,0.4565567121472938,0.012234646779539953,10.93011784469817,0.6012808184938511
11.0,20.339934338954336,0.45673456797607787,0.012229557278029159,10.929619295429973,0.6012893511716001
12.0,20.34366363697393,0.456912438558353,0.012224445368310967,10.929120762696066,0.601297984086537
13.0,20.34739266582674,0.457090323827243,0.012219325991296692,10.92862224670047,0.6013066205019376
14.0,20.351121424982107,0.45726822372264914,0.012214202156079086,10.928123747611062,0.6013152583072975
15.0,20.35484991388907,0.4574461381842507,0.012209074471361185,10.92762526559795,0.6013238715613419
16.0,20.358578132029024,0.4576240671534542,0.012203942554859704,10.927126800811592,0.6013325585352132
17.0,20.36230607890875,0.4578020105729928,0.012198808322810045,10.926628353379746,0.6013412623764779
18.0,20.36603375404077,0.4579799683860298,0.012193673694131225,10.926129923387755,0.6013499363198469
19.0,20.36976115694161,0.4581579405360163,0.012188539861350574,10.925631510925294,0.6013585052461796
20.0,20.373488287130712,0.45833592696662,0.012183405390597491,10.92513311608685,0.6013671087525073
21.0,20.377215144129558,0.458513927621643,0.012178268798262977,10.924634738980096,0.6013757726984046
22.0,20.380941727461156,0.45869194244498396,0.012173130338187345,10.924136379712637,0.6013845054929877
23.0,20.384668036649604,0.4588699713806094,0.012167992989322241,10.923638038367049,0.6013932019216393
24.0,20.388394071219732,0.45904801437252063,0.012162856781070756,10.923139715025032,0.6014018434119835
25.0,20.392119830696906,0.45922607136474225,0.012157721692289297,10.92264140976339,0.6014105558507555
26.0,20.395845314606838,0.4594041423013053,0.012152587458137134,10.922143122659682,0.601419274097989
27.0,20.399570522475496,0.45958222712624125,0.012147453536247362,10.921644853795174,0.601427991222415
28.0,20.403295453828978,0.4597603257835711,0.012142320765404486,10.921146603249676,0.601436685979957
29.0,20.40702010819345,0.4599384382172995,0.01213718915421036,10.920648371102779,0.6014453303299131
30.0,20.410744485095115,0.46011656437141935,0.012132058709407768,10.920150157433905,0.6014539270455278
31.0,20.414468584060145,0.4602947041898959,0.012126929436279762,10.919651962322355,0.6014624686333806
32.0,20.418192404614672,0.46047285761667184,0.012121801338955724,10.919153785847335,0.6014709650215807
33.0,20.42191594628474,0.4606510245956616,0.012116674420647441,10.918655628087988,0.6014794591983238
34.0,20.42563920859631,0.4608292050707559,0.012111548683831769,10.918157489123413,0.6014880293775563
35.0,20.429362191075214,0.4610073989858128,0.012106424130393988,10.917659369032677,0.6014965385913545
36.0,20.433084893247173,0.4611856062846605,0.012101300558292474,10.917161267896738,0.6015051162268421
37.0,20.436807314637786,0.46136382691110117,0.012096177969305162,10.916663185796484,0.6015136787568692
38.0,20.440529454772495,0.4615420608088996,0.01209105639249626,10.916165122810987,0.6015221900253052
39.0,20.4442513131766,0.46172030792179325,0.012085935695433423,10.915667079019347,0.6015307299694065
40.0,20.447972889375272,0.46189856819348596,0.01208081618473679,10.915169054500538,0.6015392820710043
41.0,20.451694182893494,0.46207684156764683,0.01207569786120248,10.914671049333563,0.6015477528272003
42.0,20.455415193256115,0.462255127987923,0.012070580725473642,10.914173063597447,0.6015561472203982
43.0,20.459135919987816,0.4624334273979136,0.012065464778064316,10.913675097371247,0.6015644981212166
44.0,20.462856362613124,0.4626117397411968,0.012060350019379265,10.913177150734045,0.6015727813394236
45.0,20.466576520656396,0.46279006496131303,0.012055236449730285,10.912679223764965,0.6015809792170627
46.0,20.47029639364183,0.4629684030017717,0.012050124011802643,10.912181316542556,0.601589175280983
47.0,20.474015981093462,0.46314675380604897,0.012045012634304828,10.911683429144672,0.6015976251432953
48.0,20.477735282535146,0.46332511731758624,0.012039902443294294,10.911185561650527,0.6016061884040325
49.0,20.48145429749058,0.46350349347979397,0.012034793439005624,10.91068771413938,0.6016147650872742
50.0,20.4851730254833,0.46368188223605283,0.01202968544640663,10.910189886692493,0.6016231959549713
51.0,20.488891466036662,0.46386028352970415,0.012024578576091618,10.909692079389886,0.6016317898103937
52.0,20.492609618673875,0.4640386973040584,0.012019472892477106,10.909194292310898,0.6016402343851038
53.0,20.496327482917973,0.46421712350239824,0.012014368395839772,10.90869652553491,0.6016482261237123
54.0,20.500045058291832,0.46439556206796867,0.012009265086432158,10.908198779141348,0.60165583787883
55.0,20.503762344318147,0.46457401294398387,0.012004162964485065,10.907701053209676,0.6016636116054749
56.0,20.507479340519463,0.46475247607362374,0.011999062030210025,10.90720334781941,0.6016726630854669
57.0,20.511196046418153,0.46493095140003876,0.01199396228380138,10.906705663050106,0.601681580613611
58.0,20.514912461536415,0.46510943886634504,0.011988863725438377,10.906207998981367,0.6016903197277802
59.0,20.5186285853963,0.4652879384156236,0.011983766355286767,10.905710355692841,0.6016992940320524
60.0,20.522344417519683,0.46546644999092646,0.011978670173500317,10.905212733264221,0.6017082933016403
61.0,20.526059957428274,0.4656449735352776,0.011973575180222027,10.904715131775246,0.6017172408297612
62.0,20.529775204643634,0.46582350899165886,0.011968481375585212,10.904217551305702,0.6017260620754135
63.0,20.533490158687133,0.46600205630302644,0.011963388759714543,10.903719991935422,0.6017348928631471
64.0,20.53720481908001,0.46618061541230366,0.011958297332726733,10.90322245374428,0.601743688706419
65.0,20.540919185343306,0.46635918626238254,0.011953207094731303,10.902724936812204,0.6017523165162263
66.0,20.54463325699793,0.466537768796121,0.011948118045831192,10.902227441219162,0.6017609002352449
67.0,20.54834703356461,0.4667163629563446,0.01194303018612327,10.901729967045172,0.6017692259122635
68.0,20.552060514563927,0.4668949686858528,0.011937943515698763,10.901232514370296,0.6017771723942902
69.0,20.55577369951628,0.46707358592740517,0.011932858034643709,10.900735083274647,0.6017862898075211
70.0,20.55948658794193,0.4672522146237355,0.011927773743039124,10.900237673838378,0.6017957231252097
71.0,20.563199179360957,0.46743085471754614,0.011922690640961499,10.899740286141697,0.6018037548620847
72.0,20.566911473293295,0.46760950615150354,0.01191760872848285,10.89924292026485,0.6018115115874517
73.0,20.570623469258713,0.46778816886824726,0.011912528005671065,10.898745576288135,0.6018195471144093
74.0,20.574335166776816,0.4679668428103824,0.011907448472589873,10.898248254291897,0.6018277719420358
75.0,20.578046565367053,0.46814552792048625,0.0119023701292992,10.897750954356527,0.6018359995132992
76.0,20.581757664548732,0.4683242241411012,0.011897292975855137,10.897253676562457,0.6018444019813706
77.0,20.585468463840968,0.46850293141474203,0.011892217012310045,10.896756420990174,0.6018527183594028
78.0,20.58917896276274,0.4686816496838903,0.011887142238712633,10.896259187720208,0.601860947082402
79.0,20.59288916083288,0.46886037889099724,0.011882068655108078,10.895761976833136,0.601869011252797
80.0,20.596599057570035,0.46903911897848555,0.011876996261537891,10.895264788409579,0.6018764553780006
81.0,20.600308652492714,0.46921786988874076,0.011871925058040125,10.894767622530207,0.6018835337930422
82.0,20.60401794511927,0.4693966315641253,0.011866855044649252,10.894270479275738,0.6018922380245116
83.0,20.607726934967893,0.4695754039469695,0.011861786221396272,10.893773358726932,0.601901213936794
84.0,20.61143562155662,0.4697541869795663,0.011856718588308583,10.8932762609646,0.6019103247815871
85.0,20.615144004403337,0.4699329806041876,0.011851652145410032,10.892779186069596,0.6019195600090962
86.0,20.618852083025775,0.47011178476307186,0.011846586892720935,10.892282134122821,0.6019295012158877
87.0,20.622559856941507,0.47029059939842316,0.011841522830257958,10.891785105205225,0.6019394244224122
88.0,20.62626732566796,0.47046942445242124,0.01183645995803419,10.891288099397798,0.6019491831300848
89.0,20.629974488722397,0.4706482598672131,0.011831398276059033,10.890791116781582,0.6019585397613686
90.0,20.633681345621934,0.4708271055849143,0.011826337784338148,10.890294157437662,0.6019673903592156
91.0,20.637387895883542,0.4710059615476136,0.011821278482873523,10.889797221447171,0.6019759072290515
92.0,20.641094139024034,0.4711848276973689,0.011816220371663343,10.889300308891286,0.6019842917066827
93.0,20.64480007456006,0.4713637039762079,0.011811163450701986,10.88880341985123,0.601993077234807
94.0,20.648505702008144,0.4715425903261265,0.011806107719979999,10.888306554408272,0.6020019620011092
95.0,20.652211020884646,0.4717214866890969,0.011801053179484045,10.88780971264373,0.6020109500546593
96.0,20.655916030705768,0.47190039300705827,0.011795999829196846,10.88731289463896,0.6020200362311013
97.0,20.65962073098758,0.47207930922191704,0.011790947669097194,10.886816100475372,0.6020292911887958
98.0,20.663325121245993,0.4722582352755569,0.01178589669915993,10.886319330234414,0.602038424254674
99.0,20.667029200996772,0.4724371711098276,0.01178084691935582,10.885822583997587,0.6020475043556154
100.0,20.670732969755527,0.4726161166665546,0.011775798329651631,10.885325861846429,0.6020568863895153
101.0,20.674436427037737,0.47279507188752756,0.011770750930010076,10.88482916386253,0.6020663365336785
102.0,20.67813957235872,0.47297403671451166,0.011765704720389784,10.884332490127523,0.6020759441177498
103.0,20.681842405233652,0.47315301108924274,0.011760659700745319,10.883835840723085,0.6020852209453019
104.0,20.685544925177552,0.4733319949534284,0.011755615871027077,10.883339215730938,0.6020944229530307
105.0,20.689247131705315,0.4735109882487471,0.011750573231181415,10.88284261523285,0.6021041735178257
106.0,20.692949024331675,0.47368999091684566,0.011745531781150554,10.882346039310633,0.602114033883148
107.0,20.69665060257123,0.47386900289934825,0.011740491520872637,10.881849488046145,0.6021240027885885
108.0,20.700351865938423,0.4740480241378446,0.011735452450281651,10.881352961521287,0.6021342251297342
109.0,20.704052813947555,0.4742270545739018,0.011730414569307583,10.880856459818006,0.6021442388105859
110.0,20.707753446112793,0.47440609414905377,0.011725377877876272,10.880359983018291,0.6021538860227734
111.0,20.711453761948167,0.4745851428048086,0.011720342375909614,10.879863531204178,0.6021660747955522
112.0,20.715153760967535,0.47476420048264817,0.011715308063325406,10.879367104457748,0.60217509508098
113.0,20.71885344268464,0.47494326712402085,0.011710274940037584,10.878870702861121,0.6021838352344995
114.0,20.722552806613074,0.47512234267035286,0.011705243005956085,10.878374326496466,0.6021938735725054
115.0,20.726251852266287,0.4753014270630414,0.01170021226098699,10.877877975445994,0.6022033890505865
116.0,20.729950579157588,0.47548052024345094,0.011695182705032597,10.877381649791962,0.6022131011763904
117.0,20.733648986800155,0.4756596221529255,0.011690154337991424,10.876885349616668,0.602223011771139
118.0,20.737347074707017,0.4758387327327774,0.011685127159758385,10.876389075002452,0.6022328487502276
119.0,20.74104484239106,0.47601785192429275,0.011680101144816097,10.87589282603098,0.6022428602380785
120.0,20.744742289365043,0.47619697966873,0.011675076308169175,10.875396602784383,0.6022530349403786
121.0,20.748439415141576,0.47637611590732076,0.011670052660694827,10.874900405345137,0.6022630492674367
122.0,20.752136219233144,0.4765552605812675,0.01166503020228313,10.874404233795767,0.6022729771199485
123.0,20.755832701152073,0.4767344136317467,0.01166000893282005,10.873908088218839,0.6022829528534887
124.0,20.75952886041058,0.4769135749999111,0.011654988852187596,10.873411968696963,0.6022927506106966
125.0,20.763224696520716,0.47709274462688445,0.011649969960263967,10.872915875312794,0.6023024244664584
126.0,20.766920208994428,0.4772719224537579,0.011644952256923741,10.872419808149026,0.602311924085743
127.0,20.77061539734349,0.4774511084216064,0.01163993574203804,10.871923767288395,0.6023210944122606
128.0,20.774310261079584,0.4776303024714681,0.011634920415474658,10.871427752813682,0.6023298957347286
129.0,20.77800479971422,0.4778095045443617,0.011629906276127339,10.870931764807699,0.602338366990045
130.0,20.781699012758793,0.4779887145812756,0.011624893323059946,10.870435803353287,0.6023464425073609
131.0,20.78539289972457,0.47816793252317713,0.011619881556243796,10.86993986853333,0.6023542757384541
132.0,20.789086460122657,0.47834715831099905,0.011614870975648887,10.86944396043075,0.6023621278064936
133.0,20.792779693464063,0.4785263918856537,0.011609861556723161,10.868948079127986,0.602371810574136
134.0,20.796472599259637,0.4787056331880277,0.011604853313669198,10.868452224707852,0.6023815931402776
135.0,20.800165177020126,0.47888488215897773,0.011599846255327246,10.867956397253405,0.6023911917031729
136.0,20.80385742625611,0.47906413873933923,0.011594840381692631,10.867460596847735,0.6024007059652216
137.0,20.807549346478066,0.47924340286991757,0.011589835692760592,10.866964823573985,0.6024100469593339
138.0,20.811240937196324,0.4794226744914918,0.011584832188526102,10.866469077515335,0.6024195762414254
139.0,20.814932197921102,0.4796019535448231,0.011579829868983838,10.865973358755006,0.6024292310796134
140.0,20.81862312816248,0.4797812399706401,0.011574828709893403,10.865477667375249,0.6024388233293375
141.0,20.822313727430387,0.47996053370964437,0.011569828712456178,10.864982003458556,0.6024484316079253
142.0,20.826003995234665,0.4801398347025181,0.011564829896286067,10.864486367088295,0.6024581980834512
143.0,20.829693931084993,0.48031914288991384,0.011559832261440198,10.863990758347882,0.6024678701654185
144.0,20.833383534490935,0.480498458212465,0.011554835807978217,10.863495177320765,0.6024776150119597
145.0,20.837072804961934,0.4806777806107709,0.011549840535962261,10.862999624090438,0.6024873329261587
146.0,20.840761742007288,0.48085711002541315,0.011544846445456707,10.86250409874044,0.6024967134090454
147.0,20.844450345136202,0.4810364463969428,0.011539853536528229,10.862008601354342,0.6025056659353102
148.0,20.84813861385772,0.4812157896658922,0.011534861809245633,10.861513132015764,0.6025143790071705
149.0,20.85182654768078,0.4813951397727651,0.011529871263679865,10.86101769080836,0.602523169617568
150.0,20.8555141461142,0.4815744966580417,0.011524881885382763,10.860522277815747,0.6025322329716476
151.0,20.85920140866666,0.48175386026217554,0.01151989366447722,10.860026893121514,0.6025418359301552
152.0,20.862888334846733,0.4819332305255992,0.01151490662499995,10.859531536809445,0.602551301951174
153.0,20.86657492416286,0.48211260738872275,0.01150992076706251,10.859036208963364,0.6025606051212611
154.0,20.87026117612336,0.48229199079192187,0.011504936090778111,10.858540909667132,0.6025702082994244
155.0,20.873947090236435,0.4824713806755581,0.011499952596261716,10.858045639004654,0.6025803589594828
156.0,20.877632666010154,0.48265077697996556,0.011494970283629804,10.857550397059876,0.6025904412275825
157.0,20.881317902952485,0.482830179645457,0.011489989153000297,10.85705518391678,0.6026005312733173
158.0,20.885002800571254,0.4830095886123172,0.011485009201392593,10.856559999659305,0.6026105377307883
159.0,20.888687358374185,0.48318900382080515,0.01148003039739709,10.856064844370563,0.6026205038672442
160.0,20.892371575868868,0.48336842521116613,0.011475052775479715,10.855569718134666,0.602630374340902
161.0,20.896055452562784,0.48354785272361284,0.011470076335794615,10.855074621035765,0.6026401126916425
162.0,20.899738987963296,0.48372728629833633,0.011465101078497276,10.854579553158056,0.6026497732603414
163.0,20.903422181577646,0.48390672587550615,0.011460127003744056,10.854084514585772,0.602658728097594
164.0,20.90710503291295,0.4840861713952684,0.011455154111692067,10.853589505403189,0.6026693760061037
165.0,20.910787541476225,0.4842656227977437,0.011450182402498977,10.853094525694619,0.6026793323531524
166.0,20.91446970677435,0.4844450800230324,0.011445211876322782,10.852599575544417,0.6026886126849751
167.0,20.918151528314116,0.48462454301120855,0.011440242533321796,10.852104655036978,0.6026975235862368
168.0,20.921833005602174,0.48480401170232895,0.011435274373654365,10.851609764256738,0.6027064514252479
169.0,20.92551413814507,0.4849834860364221,0.011430307397478814,10.85111490328817,0.6027154613214348
170.0,20.929194925449238,0.4851629659534935,0.01142534160495323,10.850620072215788,0.6027243301458634
171.0,20.932875367020994,0.4853424513935316,0.01142037699623533,10.85012527112415,0.602733169024437
172.0,20.936555462366538,0.485521942296497,0.011415413571482328,10.849630500097843,0.6027419841974875
173.0,20.940235210991965,0.48570143860232934,0.011410451330850696,10.84913575922151,0.6027507582090011
174.0,20.94391461240326,0.48588094025094986,0.011405490274496102,10.84864104857982,0.6027594104708104
175.0,20.94759366610628,0.48606044718224845,0.011400530402573257,10.848146368257487,0.6027678086764194
176.0,20.951272371606784,0.48623995933610514,0.011395571715235614,10.847651718339266,0.602775621704265
177.0,20.954950728410424,0.486419476652365,0.011390614212635387,10.847157098909948,0.6027826086876468
178.0,20.95862873602272,0.4865989990708614,0.011385657894923261,10.846662510054367,0.6027909052931758
179.0,20.96230639394912,0.48677852653140147,0.011380702762248378,10.846167951857396,0.6028000087927996
180.0,20.96598370169492,0.4869580589737718,0.011375748814758014,10.845673424403945,0.6028089579085529
181.0,20.969660658765335,0.4871375963377331,0.011370796052597542,10.845178927778965,0.6028169825545674
182.0,20.973337264665474,0.4873171385630331,0.011365844464686007,10.844684462066931,0.6028242110698976
183.0,20.977013518900314,0.4874966855893897,0.011360894046933303,10.84419002735213,0.6028316619564706
184.0,20.98068942097475,0.48767623735650406,0.011355944813654978,10.84369562371955,0.6028394185519924
185.0,20.98436497039355,0.487855793804055,0.011350996763208897,10.843201251254182,0.6028473131443584
186.0,20.988040166661396,0.48803535487170097,0.01134604986935073,10.842706910040608,0.6028552788031561
187.0,20.99171500928284,0.4882149204990773,0.01134110414036006,10.842212600162712,0.6028634124743284
188.0,20.995389497762353,0.4883944906257984,0.011336159596708957,10.841718321705653,0.6028713520674346
189.0,20.999063631604287,0.4885740651914596,0.011331216238465417,10.841224074754628,0.6028792447049871
190.0,21.002737410312907,0.4887536441356386,0.011326274055842323,10.840729859394935,0.6028871315714645
191.0,21.006410833392337,0.4889332273978823,0.011321333044601745,10.840235675711936,0.6028950367403055
192.0,21.010083900346647,0.4891128149177288,0.011316393218798876,10.83974152379096,0.6029027895560595
