k,PSNR,SSIM,mse,Log-Gradient,Angle
0.0,20.446494433668537,0.6497682633704752,0.0,11.111761725817564,0.5698444710840113
1.0,20.44939097967667,0.6498801046672303,0.010051309699173854,11.111445244943408,0.57588384518386
2.0,20.452725982245674,0.6500115717717976,0.011672658142173558,11.111088123810486,0.5759418158048424
3.0,20.456082431440702,0.6501440637136021,0.011782023782198841,11.110729068221014,0.5759299099874874
4.0,20.459440250410907,0.6502766288765671,0.01179260831076087,11.11036989459088,0.575929131620399
5.0,20.462797583795815,0.6504091799026163,0.011791061748183332,11.110010780336111,0.5759227028780014
6.0,20.466154091408043,0.6505417012353442,0.011786751962407926,11.109651759318131,0.5759139838550231
7.0,20.469509700251734,0.6506741899060503,0.011781685422004062,11.109292839461661,0.5759044592093421
8.0,20.47286438387431,0.6508066448000016,0.011776305816146807,11.108934023732713,0.5758958539117042
9.0,20.476218133261945,0.6509390655347077,0.011770816008997573,11.108575313047655,0.5758939727105904
10.0,20.47957094319237,0.6510714519021806,0.011765242214309902,11.108216708173792,0.5758920887236966
11.0,20.48292281035358,0.6512038037802986,0.011759611838878253,11.107858209692083,0.5758891932945979
12.0,20.486273732413945,0.6513361210733538,0.011753945845704359,11.107499817988932,0.5758857958824167
13.0,20.489623707380346,0.6514684037036307,0.011748253108960147,11.10714153323721,0.5758829808065066
14.0,20.492972733793238,0.651600651617185,0.011742547537394692,11.106783355522037,0.5758802041732968
15.0,20.496320810672618,0.6517328647764615,0.011736833545972176,11.106425284938439,0.57587735656038
16.0,20.49966793721852,0.6518650431415174,0.011731114825555874,11.106067321588736,0.5758749199969261
17.0,20.503014112605932,0.651997186674233,0.011725396276626334,11.10570946554043,0.5758718351287268
18.0,20.506359335991334,0.6521292953359943,0.011719670735132285,11.105351716877152,0.5758713282714002
19.0,20.509703606614327,0.6522613690914382,0.011713946584742053,11.104994075663974,0.5758695759032063
20.0,20.51304692371273,0.6523934079053572,0.011708224113357382,11.104636541960202,0.5758676552605189
21.0,20.516389286498537,0.6525254117438705,0.011702501837201607,11.104279115836908,0.5758656127470997
22.0,20.519730694213138,0.6526573805723722,0.01169678086504685,11.103921797354417,0.5758635201185826
23.0,20.523071146127215,0.6527893143566914,0.011691061773415721,11.103564586569252,0.5758614163123678
24.0,20.526410641492312,0.6529212130617017,0.011685343672986561,11.10320748354281,0.5758592431507201
25.0,20.529749179572725,0.6530530766532506,0.011679627073478227,11.102850488325585,0.5758569798022212
26.0,20.533086759607517,0.653184905094891,0.01167391023434326,11.10249360097306,0.5758547451469122
27.0,20.536423380850565,0.6533166983520502,0.011668193385854186,11.10213682154094,0.5758525552182786
28.0,20.539759042579014,0.6534484563910461,0.011662477066564233,11.1017801500885,0.575850362344491
29.0,20.543093744059966,0.6535801791780675,0.011656762011222581,11.10142358666759,0.5758482926561479
30.0,20.546427484573904,0.6537118666795535,0.011651048419569801,11.10106713133676,0.5758463109938802
31.0,20.549760263401787,0.6538435188619779,0.011645336814290095,11.10071078414847,0.5758442742014519
32.0,20.55309207982502,0.6539751356918502,0.011639627201381533,11.100354545154943,0.575842182051674
33.0,20.556422933116618,0.6541067171355609,0.011633919125331484,11.099998414409104,0.5758400269342234
34.0,20.559752822547587,0.6542382631595577,0.011628212011778287,11.099642391958241,0.5758378074406537
35.0,20.563081747401117,0.6543697737304534,0.011622506866094841,11.099286477854006,0.5758355072942355
36.0,20.566409706924233,0.6545012488143357,0.011616802972780206,11.098930672146453,0.5758331381395821
37.0,20.569736700327844,0.654632688376811,0.011611099762379916,11.098574974888242,0.5758307567010329
38.0,20.573062726889546,0.6547640923842245,0.011605397806175248,11.09821938613012,0.5758284295433514
39.0,20.57638778589489,0.6548954608032943,0.011599697602527317,11.09786390592304,0.5758261543111743
40.0,20.579711876630626,0.655026793600794,0.01159399934239972,11.097508534317875,0.57582393833794
41.0,20.583034998383862,0.6551580907435318,0.01158830302726671,11.097153271365391,0.5758217215724725
42.0,20.586357150442044,0.6552893521983375,0.01158260865831346,11.096798117116258,0.5758195042825397
43.0,20.589678332092983,0.6554205779320629,0.011576916236473219,11.096443071621044,0.5758172844118947
44.0,20.592998542624837,0.6555517679115855,0.011571225762459293,11.096088134930223,0.5758149895364809
45.0,20.596317781326103,0.6556829221038081,0.011565537236791403,11.095733307094184,0.575812602011372
46.0,20.59963604748563,0.6558140404756571,0.01155985065981881,11.095378588163214,0.57581002502404
47.0,20.60295334039262,0.6559451229940775,0.011554166031739088,11.095023978187523,0.575807469659191
48.0,20.606269659336608,0.6560761696260492,0.011548483283354345,11.094669477217344,0.575804832951099
49.0,20.609585003607478,0.6562071803385656,0.011542801990219233,11.09431508530204,0.5758047547376255
50.0,20.612899372495455,0.6563381550986468,0.011537122519352178,11.093960802490262,0.575800778631408
51.0,20.616212765291102,0.6564690938733392,0.011531444806552514,11.093606628832383,0.575798037083723
52.0,20.619525181285336,0.6565999966297119,0.011525768904948457,11.093252564376039,0.5757953245837882
53.0,20.62283661976942,0.6567308633348543,0.01152009478060907,11.09289860917085,0.5757925601594521
54.0,20.626147080034954,0.6568616939558849,0.011514422550971733,11.092544763266405,0.5757898693090587
55.0,20.629456561373892,0.656992488459943,0.011508752253199826,11.092191026712229,0.5757875199917858
56.0,20.63276506307854,0.6571232468141885,0.011503083887798398,11.091837399557775,0.5757851756046962
57.0,20.63607258443969,0.6572539689857883,0.011497417324873797,11.091483881852236,0.5757828143074031
58.0,20.639379124749645,0.6573846549419394,0.011491752639677872,11.091130473644819,0.5757804161108503
59.0,20.642684683301887,0.6575153046498808,0.011486089889099167,11.090777174984726,0.5757778900800613
60.0,20.64598925939022,0.6576459180768738,0.011480429073638145,11.090423985921085,0.5757752002941642
61.0,20.649292852308825,0.657776495190205,0.011474770193755295,11.090070906502945,0.5757720824461239
62.0,20.652595461352238,0.6579070359571864,0.011469113249874848,11.089717936779278,0.5757701774537575
63.0,20.655897085815344,0.6580375403451476,0.011463458242387366,11.089365076798986,0.5757687641827328
64.0,20.659197724993376,0.6581680083214521,0.011457805171652525,11.089012326610892,0.5757669860357914
65.0,20.662497378181925,0.6582984398534792,0.011452154038001294,11.08865968626374,0.5757658319748095
66.0,20.66579604467695,0.6584288349086377,0.011446504841737702,11.088307155806206,0.5757650836053952
67.0,20.669093723774765,0.6585591934543576,0.011440857583140639,11.087954735286887,0.575763274837529
68.0,20.672390414772043,0.6586895154580951,0.011435212137180503,11.087602424755156,0.5757609792050055
69.0,20.675686116965814,0.6588198008873296,0.011429568611974483,11.087250224259563,0.5757582428730034
70.0,20.67898082965348,0.6589500497095689,0.011423927026541814,11.086898133848457,0.5757552279292343
71.0,20.682274552132796,0.6590802618923381,0.01141828738118244,11.086546153570115,0.5757523855723337
72.0,20.6855672837019,0.6592104374031919,0.011412649676174754,11.086194283472736,0.5757506897514743
73.0,20.68885902365927,0.6593405762097094,0.011407013900846887,11.085842523604443,0.5757486717542762
74.0,20.692149771303768,0.6594706782794959,0.011401379969341555,11.085490874013292,0.5757465390142308
75.0,20.695439525933864,0.6596007435801386,0.0113957479620674,11.085139334746799,0.5757442930332163
76.0,20.698728286847185,0.6597307720791868,0.011390117842038878,11.08478790585167,0.5757416421436133
77.0,20.702016053343755,0.6598607637443252,0.011384489664390691,11.084436587375732,0.5757384357724205
78.0,20.705302824723976,0.6599907185432525,0.011378863429396134,11.084085379366746,0.5757362914934551
79.0,20.708588600288607,0.6601206364437034,0.011373239137311256,11.08373428187239,0.5757351677045403
80.0,20.71187337933882,0.6602505174134317,0.011367616788374793,11.083383294940276,0.5757334149604454
81.0,20.715157161176133,0.6603803614202189,0.011361996382808494,11.083032418617938,0.5757311804501201
82.0,20.718439945102475,0.6605101684318706,0.011356377920817147,11.08268165295284,0.5757286530723721
83.0,20.721721730420132,0.6606399384162155,0.011350761402588767,11.082330997992369,0.575725837258552
84.0,20.725002516431793,0.660769671341113,0.011345146828294815,11.081980453783839,0.5757246760543229
85.0,20.72828230244054,0.6608993671744415,0.01133953419809023,11.081630020374494,0.575723573108457
86.0,20.731561087749814,0.6610290258841132,0.011333923512113705,11.081279697811498,0.5757220472261629
87.0,20.734838871663467,0.6611586474380542,0.01132831477048767,11.08092948614195,0.5757204932114139
88.0,20.73811565348574,0.6612882318042278,0.011322707973318552,11.080579385412864,0.5757193713709983
89.0,20.741391432521255,0.6614177789506187,0.011317103120696989,11.080229395671193,0.5757161321420834
90.0,20.744666208075042,0.6615472888452342,0.01131150021269765,11.079879516963805,0.5757138186711176
91.0,20.74793997945251,0.6616767614561097,0.01130589924937975,11.0795297493375,0.5757124206439469
92.0,20.751212745959485,0.6618061967513095,0.0113003002307869,11.079180092839003,0.5757111524403807
93.0,20.75448450690216,0.6619355946989194,0.011294703156947396,11.078830547514967,0.5757097364502224
94.0,20.757755261587153,0.6620649552670529,0.01128910802787428,11.078481113411964,0.5757081302946262
95.0,20.76102500932148,0.6621942784238494,0.011283514843565589,11.078131790576501,0.5757064645545428
96.0,20.764293749412552,0.6623235641374744,0.011277923604004272,11.077782579055006,0.5757047467837414
97.0,20.767561481168176,0.6624528123761192,0.011272334309158603,11.077433478893834,0.575702826871417
98.0,20.770828203896578,0.6625820231080025,0.011266746958982152,11.077084490139264,0.5757006345310699
99.0,20.774093916906388,0.6627111963013679,0.011261161553414084,11.076735612837501,0.5756983229842081
100.0,20.777358619506643,0.6628403319244827,0.011255578092379238,11.076386847034678,0.5756960172728811
101.0,20.78062231100678,0.6629694299456497,0.011249996575788278,11.076038192776855,0.5756936823535864
102.0,20.783884990716665,0.6630984903331881,0.011244417001822275,11.075689650110007,0.5756919615450092
103.0,20.787146657946565,0.6632275130554488,0.011238839369334123,11.075341219080045,0.5756901881326117
104.0,20.790407312007154,0.6633564980808068,0.011233263678290972,11.074992899732795,0.5756882788913327
105.0,20.79366695220955,0.6634854453776655,0.011227689928649393,11.074644692114013,0.5756862896340192
106.0,20.796925577865256,0.6636143549144555,0.011222118120355434,11.07429659626938,0.5756845027239204
107.0,20.800183188286198,0.6637432266596298,0.011216548253344713,11.0739486122445,0.5756822464492152
108.0,20.80343978278475,0.6638720605816768,0.011210980327542575,11.073600740084904,0.5756803279535202
109.0,20.806695360673682,0.6640008566491031,0.011205414342864064,11.073252979836045,0.5756790378424499
110.0,20.809949921266192,0.6641296148304443,0.011199850299214175,11.072905331543305,0.5756773175250007
111.0,20.813203463875908,0.6642583350942665,0.011194288196487769,11.072557795251987,0.5756748870027748
112.0,20.816455987816877,0.6643870174091582,0.011188728034569858,11.07221037100732,0.5756718280054066
113.0,20.819707492403584,0.6645156617437407,0.011183169813335652,11.071863058854456,0.5756681343230882
114.0,20.82295797695094,0.664644268066652,0.011177613532650666,11.071515858838474,0.5756634097821057
115.0,20.826207440774276,0.664772836346574,0.011172059192370881,11.071168771004377,0.5756585731589302
116.0,20.829455883189375,0.6649013665521996,0.011166506792342898,11.070821795397089,0.5756548532048961
117.0,20.832703303512442,0.6650298586522553,0.011160956332404,11.070474932061463,0.5756516348806835
118.0,20.835949701060116,0.6651583126154992,0.011155407812382369,11.070128181042275,0.5756489137982604
119.0,20.83919507514949,0.6652867284107119,0.011149861232097302,11.069781542384224,0.5756460867938401
120.0,20.84243942509807,0.6654151060067018,0.011144316591359177,11.06943501613193,0.5756432935319041
121.0,20.845682750223816,0.6655434453723029,0.01113877388996977,11.069088602329945,0.5756404446527753
122.0,20.848925049845146,0.6656717464763852,0.011133233127722459,11.068742301022736,0.5756374674477387
123.0,20.852166323280894,0.665800009287835,0.011127694304402209,11.068396112254701,0.5756343590896712
124.0,20.855406569850352,0.6659282337755751,0.011122157419785993,11.06805003607016,0.5756311116448738
125.0,20.85864578887461,0.6660564199088538,0.011116622473466628,11.067704072512683,0.5756276460453055
126.0,20.86188397967649,0.6661845676572208,0.01111108946361601,11.06735822162514,0.5756240548115846
127.0,20.865121141576633,0.6663126769896808,0.011105558388224666,11.067012483451634,0.5756203964082821
128.0,20.868357273896123,0.6664407478752694,0.011100029247082381,11.066666858036195,0.5756164904280529
129.0,20.871592375956528,0.6665687802830439,0.011094502039973414,11.06632134542277,0.5756123520156535
130.0,20.87482644707886,0.6666967741820758,0.01108897670232295,11.065975945654412,0.5756080427257695
131.0,20.878059486585574,0.6668247295414783,0.011083453294649583,11.065630658774882,0.5756036086970148
132.0,20.881291493799647,0.6669526463303971,0.011077931819842183,11.065285484827918,0.5755998626427395
133.0,20.88452246804449,0.6670805245180095,0.011072412277745594,11.064940423857166,0.5755961061698099
134.0,20.887752408644,0.6672083640735204,0.011066894668200837,11.064595475906206,0.575593446215956
135.0,20.890981314922517,0.667336164966157,0.011061378991045081,11.064250641018537,0.5755921719079382
136.0,20.894209186204854,0.667463927165184,0.011055865246111731,11.063905919237582,0.5755908700905891
137.0,20.897436021816283,0.6675916506398837,0.011050353433230575,11.063561310606687,0.5755893373216744
138.0,20.900661821082554,0.6677193353595801,0.011044843552227797,11.063216815169119,0.5755876032048214
139.0,20.903886583329875,0.6678469812936139,0.01103933560292616,11.06287243296807,0.5755858432493176
140.0,20.907110307884928,0.667974588411362,0.011033829585145049,11.062528164046656,0.5755837967256912
141.0,20.910332994074864,0.6681021566822292,0.011028325498700553,11.062184008447911,0.5755816374711692
142.0,20.913554641227307,0.6682296860756446,0.011022823333630768,11.061839966214642,0.5755794821859151
143.0,20.91677524867036,0.6683571765610719,0.011017323049051049,11.061496037388688,0.5755772567041686
144.0,20.919994815732586,0.6684846281079987,0.011011824668719942,11.061152222012097,0.575575239350592
145.0,20.923213341743036,0.6686120406859466,0.011006328217250885,11.060808520127612,0.5755730379117213
146.0,20.92643082603059,0.668739414264448,0.011000833651692186,11.060464931776755,0.5755696245968195
147.0,20.9296472679252,0.6688667488130778,0.010995341010055665,11.060121457002005,0.5755658814347004
148.0,20.932862666757394,0.6689940443014448,0.010989850296978715,11.059778095845884,0.5755624395707674
149.0,20.93607702185816,0.6691213006991833,0.01098436147503898,11.059434848350017,0.5755591509338134
150.0,20.939290332558972,0.6692485179759605,0.010978874573513507,11.05909171455664,0.5755557539106994
151.0,20.942502598191794,0.66937569610147,0.010973389595246954,11.058748694508026,0.5755522096165099
152.0,20.945713818089065,0.6695028350454321,0.010967906537472205,11.058405788246368,0.5755485257759702
153.0,20.948923991583722,0.6696299347776021,0.010962425400321192,11.058062995813781,0.5755446804581268
154.0,20.952133118009204,0.6697569952677634,0.010956946183932073,11.0577203172523,0.5755409741679574
155.0,20.955341196699425,0.6698840164857282,0.01095146884828337,11.057377752603381,0.5755377817983989
156.0,20.95854822698879,0.6700109984013386,0.010945993432799724,11.057035301908904,0.5755353552565076
157.0,20.961754208212213,0.6701379409844695,0.010940519938207634,11.056692965210672,0.5755333374568384
158.0,20.9649591397051,0.6702648442050192,0.010935048364700503,11.056350742550416,0.5755311649354172
159.0,20.968163020803345,0.6703917080329225,0.010929578712476854,11.056008633969782,0.5755289933370867
160.0,20.971365850843352,0.6705185324381385,0.010924110981740098,11.055666639510344,0.5755266237415276
161.0,20.974567629162017,0.670645317390664,0.010918645172698131,11.055324759213596,0.5755241923234796
162.0,20.97776835509674,0.6707720628605175,0.01091318128556302,11.054982993120952,0.5755215434967439
163.0,20.98096802798542,0.6708987688177533,0.010907719320550825,11.054641341273749,0.5755186422688726
164.0,20.98416664716646,0.6710254352324526,0.01090225927759651,11.054299803713246,0.5755155099631101
165.0,20.987364211978775,0.6711520620747317,0.010896801154745199,11.05395838048062,0.5755121235702497
166.0,20.990560721761785,0.671278649314733,0.010891344952233378,11.053617071616964,0.5755084872072858
167.0,20.993756175855403,0.6714051969226311,0.010885890670302299,11.053275877163303,0.5755044888589083
168.0,20.996950573600067,0.6715317048686283,0.010880438309197476,11.052934797160573,0.5755001995919756
169.0,21.000143914336725,0.6716581731229616,0.010874987833414508,11.052593831649581,0.5754958209567561
170.0,21.003336197406828,0.6717846016558974,0.01086953927825571,11.052252980671113,0.5754915532855864
171.0,21.006527422152338,0.6719109904377305,0.010864092644812232,11.051912244265871,0.5754873505163515
172.0,21.009717587915752,0.6720373394387895,0.010858647933372979,11.051571622474482,0.5754833139094561
173.0,21.012906694040062,0.6721636486294337,0.010853205144229404,11.05123111533749,0.5754795218683435
174.0,21.016094739868784,0.6722899179800507,0.01084776427767513,11.050890722895364,0.575475738759133
175.0,21.019281724745944,0.6724161474610612,0.010842325333933207,11.050550445188493,0.5754723784120519
176.0,21.02246764801611,0.6725423370429168,0.010836888311664192,11.050210282257172,0.5754688947582706
177.0,21.02565250902434,0.6726684866960984,0.010831453211193415,11.049870234141617,0.5754653323798441
178.0,21.028836307116073,0.6727945963911134,0.010826020022799296,11.049530300881527,0.5754617000855806
179.0,21.032019041637163,0.6729206660984937,0.010820588739965071,11.049190482516234,0.5754575178913572
180.0,21.035200711934262,0.6730466957888176,0.010815159378990784,11.048850779085706,0.5754514652276703
181.0,21.03838131735456,0.673172685432689,0.01080973194026037,11.048511190629837,0.5754495829514543
182.0,21.041560857245774,0.6732986350007507,0.0108043064241591,11.048171717188433,0.5754462229566342
183.0,21.044739330956126,0.6734245444636691,0.010798882831073112,11.04783235880123,0.5754424739593559
184.0,21.0479167378344,0.6735504137921499,0.01079346116138903,11.04749311550788,0.5754388745094677
185.0,21.051093077229886,0.6736762429569252,0.010788041415493393,11.047153987347956,0.5754358082040233
186.0,21.05426834849242,0.6738020319287629,0.010782623593772248,11.046814974360954,0.5754329300420388
187.0,21.057442550972368,0.6739277806784555,0.010777207696610612,11.04647607658629,0.5754299844224559
188.0,21.060615684020632,0.674053489176836,0.010771793711812335,11.046137294063174,0.5754269258290755
189.0,21.06378774698864,0.6741791573947609,0.010766381619366392,11.045798626830534,0.5754236058566058
190.0,21.066958739228365,0.674304785303128,0.010760971451002521,11.045460074927538,0.5754204594481545
191.0,21.070128660092315,0.6744303728728568,0.010755563207086179,11.045121638393274,0.5754172463801098
192.0,21.07329750893355,0.6745559200749055,0.010750156887978552,11.044783317266749,0.5754139026066308
193.0,21.076465285105655,0.6746814268802633,0.010744752494036409,11.04444511158689,0.5754117025614125
