k,PSNR,SSIM,mse,Log-Gradient,Angle
0.0,20.446494433668537,0.6497682633704752,0.0,11.111761725817564,0.5698444710840113
1.0,20.449391084975154,0.6498801087330389,0.010051675068483167,11.111445233438095,0.5758838451498868
2.0,20.452726314072912,0.6500115846825852,0.011673442873638473,11.111088087817675,0.5759418152280086
3.0,20.45608311180111,0.6501440902858956,0.011783234894736741,11.110728994688602,0.5759299097527519
4.0,20.45944140134705,0.6502766739293434,0.011794247105822744,11.110369770463532,0.5759291306101536
5.0,20.462799327321385,0.6504092482541608,0.011793128251356335,11.110010592561713,0.5759227027502825
6.0,20.46615654949543,0.6505417977026744,0.011789245920276312,11.109651494849027,0.5759139844127483
7.0,20.469512994829245,0.6506743193047987,0.01178460649284116,11.109292485254974,0.5759044621806612
8.0,20.472868636825027,0.650806811944375,0.011779653629073898,11.108933566750466,0.5758958525396703
9.0,20.476223466423242,0.6509392752374537,0.011774590177952548,11.10857474025682,0.5758939688367404
10.0,20.479577478355537,0.6510717089745864,0.011769442349790207,11.108216006546337,0.5758920853003305
11.0,20.48293066926352,0.6512041130321672,0.011764237548003431,11.107857366205007,0.5758891901001225
12.0,20.486283036768953,0.6513364873129994,0.01175899673245579,11.107498819624292,0.5758857927232405
13.0,20.489634578831794,0.6514688317378634,0.01175372877640181,11.107140366982152,0.5758829767122987
14.0,20.49298529394541,0.6516011462513018,0.011748447586956598,11.106782008368805,0.5758801994149608
15.0,20.496335181082458,0.6517334308142413,0.01174315757808622,11.106423743884397,0.5758773492138561
16.0,20.499684239395442,0.6518656853852027,0.011737862439639774,11.106065573636386,0.575874913176052
17.0,20.503032468011646,0.651997909924529,0.011732567071680383,11.105707497697425,0.5758718192860499
18.0,20.5063798660396,0.652130104392057,0.011727264311526394,11.10534951615632,0.575871316767414
19.0,20.509726432670785,0.6522622687508617,0.011721962540756553,11.104991629083328,0.5758695627540844
20.0,20.513072167094677,0.652394402964174,0.011716662047520345,11.104633836542959,0.5758676405973407
21.0,20.51641706847475,0.6525265069965297,0.011711361348924405,11.104276138611505,0.5758655968871962
22.0,20.519761136003662,0.6526585808117406,0.011706061552965502,11.103918535354529,0.5758635026996658
23.0,20.523104368903155,0.6527906243740397,0.011700763236432236,11.103561026833809,0.5758613974829926
24.0,20.526446766375635,0.6529226376466958,0.011695465510172212,11.103203613116007,0.5758592222154271
25.0,20.529788327636084,0.6530546205939463,0.011690168884217754,11.102846294256905,0.57585695663808
26.0,20.533129051874027,0.6531865731777186,0.011684871619282404,11.102489070317283,0.5758547192083845
27.0,20.536468938293613,0.6533184953618103,0.01167957394509107,11.102131941358158,0.5758525287738143
28.0,20.539807986122046,0.6534503871108984,0.01167427639900428,11.101774907444142,0.5758503346130842
29.0,20.543146194576313,0.6535822483895212,0.011668979716387157,11.101417968632434,0.5758482656819793
30.0,20.546483562886536,0.653714079162459,0.011663684097338195,11.101061124986947,0.5758462815566288
31.0,20.549820090283156,0.6538458793945167,0.01165839006394341,11.100704376565519,0.5758442395597516
32.0,20.55315577599686,0.653977649050532,0.011653097622543298,11.100347723425774,0.5758421447554212
33.0,20.556490619249736,0.6541093880952037,0.011647806318756507,11.099991165626045,0.5758399864719682
34.0,20.559824619261647,0.6542410964932909,0.011642515577278977,11.099634703219047,0.5758377626349965
35.0,20.563157775264457,0.6543727742096935,0.011637226403643754,11.099278336261875,0.5758354593419924
36.0,20.566490086453765,0.6545044212087955,0.011631938084455703,11.098922064810047,0.5758330860132402
37.0,20.569821551988674,0.6546360374544762,0.01162665004826286,11.098565888921685,0.5758307040928307
38.0,20.573152171094833,0.654767622911353,0.011621362867105044,11.098209808653035,0.5758283751834867
39.0,20.576481943005657,0.6548991775443979,0.011616077038481415,11.09785382406055,0.5758260968703415
40.0,20.579810866955583,0.6550307013186414,0.01161079275392488,11.097497935200629,0.5758238799990106
41.0,20.583138942179158,0.6551621941991296,0.0116055100150265,11.097142142129574,0.5758216599113902
42.0,20.586466167911126,0.6552936561509269,0.011600228823088168,11.096786444903604,0.5758194424169557
43.0,20.589792543386352,0.6554250871391067,0.011594949179160052,11.096430843578856,0.5758172161615679
44.0,20.593118067839868,0.6555564871287618,0.01158967108407232,11.096075338211394,0.5758149164920557
45.0,20.59644274050686,0.655687856085002,0.01158439453846174,11.095719928857196,0.5758125202983805
46.0,20.59976656062262,0.6558191939729467,0.011579119542794464,11.095364615572173,0.5758099320568671
47.0,20.603089527422625,0.6559505007577323,0.011573846097385185,11.095009398412158,0.5758073657677683
48.0,20.606411640142497,0.6560817764045143,0.011568574133994503,11.094654277433033,0.575804756918605
49.0,20.609732898017977,0.6562130208784543,0.011563303226939615,11.094299252689815,0.575804479772077
50.0,20.613053300284967,0.6563442341447375,0.011558033744205927,11.093944324236842,0.5758006450578538
51.0,20.616372846179498,0.6564754161685579,0.011552765621748406,11.093589492130178,0.575797909351827
52.0,20.619691534937758,0.656606566915126,0.011547498912616297,11.093234756423165,0.5757951884834961
53.0,20.623009365796072,0.6567376863496662,0.01154223358312508,11.092880117171145,0.5757924176141067
54.0,20.62632633799092,0.6568687744374192,0.011536969750469622,11.092525574429448,0.5757897448495547
55.0,20.629642450758922,0.6569998311436428,0.011531707451988548,11.092171128253357,0.5757873929194861
56.0,20.632957703336842,0.6571308564335997,0.011526446688303278,11.091816778698089,0.5757850445336343
57.0,20.636272094959768,0.657261850272557,0.01152118733046718,11.091462525818624,0.5757826783863713
58.0,20.639585624864054,0.6573928126257943,0.011515929452440956,11.091108369669971,0.5757802712389395
59.0,20.64289829228703,0.6575237434586337,0.011510673111804811,11.090754310307148,0.575777727096468
60.0,20.6462100964662,0.6576546427364052,0.01150541830917542,11.090400347785112,0.5757750157258986
61.0,20.649521036639197,0.6577855104244571,0.01150016504512952,11.09004648215876,0.5757719199860503
62.0,20.652831112043813,0.6579163464881486,0.011494913320207334,11.089692713482933,0.5757700859056749
63.0,20.656140321918002,0.6580471508928607,0.01148966313491562,11.089339041812401,0.5757686611035208
64.0,20.659448665499873,0.658177923603981,0.011484414489730045,11.088985467201887,0.5757668537329214
65.0,20.662756142027668,0.65830866458692,0.011479167385097605,11.088631989706043,0.5757657941358905
66.0,20.666062750739815,0.6584393738070996,0.011473921821438275,11.088278609379467,0.5757649970633753
67.0,20.669368490874888,0.6585700512299549,0.011468677799146863,11.087925326276695,0.5757631110363959
68.0,20.672673361671627,0.658700696820944,0.01146343519489038,11.087572140453046,0.5757607771256293
69.0,20.675977362368908,0.6588313105455331,0.011458194113994187,11.087219051963052,0.5757579948545319
70.0,20.679280492205805,0.6589618923692058,0.01145295457692001,11.086866060861047,0.5757549753373051
71.0,20.68258275042154,0.6590924422574634,0.011447716584083605,11.086513167201305,0.575752265723163
72.0,20.685884136255478,0.65922296017582,0.011442480135878945,11.086160371038044,0.5757505297588857
73.0,20.68918464894718,0.6593534460898064,0.011437245227814379,11.08580767242542,0.5757484829939831
74.0,20.692484287736352,0.6594838999649694,0.011432011762383256,11.085455071417533,0.5757463240106326
75.0,20.69578305186207,0.6596143217668299,0.011426779824226223,11.085102568067924,0.5757440448127733
76.0,20.699080940562467,0.6597447114608669,0.011421549379892511,11.084750162429415,0.5757413209827468
77.0,20.702377953077814,0.6598750690126787,0.011416320482794996,11.084397854555926,0.575738092123074
78.0,20.705674088648568,0.6600053943878751,0.011411093133321852,11.084045644501321,0.5757362046961413
79.0,20.708969346515342,0.6601356875520855,0.011405867331843926,11.083693532319405,0.575734996280701
80.0,20.712263725918948,0.6602659484709542,0.011400643078714804,11.083341518063927,0.5757331705584973
81.0,20.715557226100366,0.6603961771101413,0.011395420374270876,11.082989601788576,0.5757308809121094
82.0,20.71884984630076,0.6605263734353275,0.011390199218831562,11.08263778354698,0.5757282797498079
83.0,20.722141585761477,0.6606565374122018,0.01138497961269951,11.082286063392717,0.5757253237163454
84.0,20.725432443724042,0.6607866690064753,0.01137976155616065,11.081934441379294,0.5757245995993251
85.0,20.72872241943017,0.6609167681838758,0.011374545049484416,11.081582917560173,0.5757233877638844
86.0,20.732011512121765,0.6610468349101457,0.011369330092923843,11.081231491988746,0.5757218307378057
87.0,20.73529972104091,0.6611768691510416,0.011364116686715747,11.080880164718355,0.5757203145381028
88.0,20.738587045429888,0.6613068708723412,0.0113589048310808,11.080528935802278,0.5757190025041136
89.0,20.74187348453117,0.6614368400398356,0.011353694526223822,11.080177805293738,0.5757157115011106
90.0,20.745159037587403,0.6615667766193375,0.011348485772333683,11.079826773245896,0.5757135643602719
91.0,20.748443703841453,0.6616966805766684,0.011343278569583648,11.079475839711856,0.5757122396121173
92.0,20.75172748253636,0.6618265518776777,0.011338072918131365,11.079125004744665,0.5757109450235728
93.0,20.755010372915375,0.6619563904882163,0.011332868818119088,11.078774268397305,0.5757094917525605
94.0,20.75829237422194,0.6620861963741694,0.011327666269673794,11.078423630722707,0.5757078569687111
95.0,20.761573485699696,0.6622159695014253,0.011322465272907312,11.078073091773737,0.5757061760269612
96.0,20.764853706592486,0.6623457098358991,0.011317265827916435,11.077722651603205,0.5757044292213261
97.0,20.768133036144356,0.6624754173435177,0.01131206793478316,11.077372310263861,0.5757024456442212
98.0,20.771411473599557,0.6626050919902237,0.011306871593574722,11.077022067808397,0.5757002277867592
99.0,20.77468901820254,0.6627347337419834,0.011301676804343906,11.076671924289442,0.5756978651407003
100.0,20.777965669197968,0.6628643425647746,0.011296483567129114,11.076321879759568,0.5756955826764203
101.0,20.781241425830707,0.6629939184245969,0.01129129188195452,11.075971934271289,0.5756932828143819
102.0,20.784516287345845,0.663123461287463,0.011286101746764584,11.075622087877056,0.5756916249812764
103.0,20.787790252988664,0.6632529711194063,0.011280913160880505,11.075272340629258,0.5756898148326793
104.0,20.791063322004675,0.6633824478864766,0.011275726124383396,11.074922692580225,0.5756878699977517
105.0,20.79433549363959,0.663511891554743,0.011270540637343673,11.074573143782228,0.5756859447311543
106.0,20.797606767139346,0.6636413020902888,0.011265356699821245,11.074223694287477,0.5756840791591952
107.0,20.800877141750092,0.6637706794592187,0.01126017431186558,11.073874344148122,0.5756816819038412
108.0,20.804146616718203,0.6639000236276559,0.011254993473515783,11.073525093416253,0.5756800498234106
109.0,20.807415191290268,0.6640293345617326,0.011249814184800632,11.073175942143898,0.57567872166499
110.0,20.8106828647131,0.6641586122276119,0.011244636445738764,11.072826890383025,0.5756768376701424
111.0,20.81394963623373,0.6642878565914679,0.011239460256338768,11.072477938185546,0.575674232634952
112.0,20.81721550509943,0.6644170676194919,0.011234285616599225,11.072129085603306,0.5756710328770803
113.0,20.820480470557683,0.664546245277896,0.011229112526508865,11.071780332688094,0.5756670873175268
114.0,20.823744531856214,0.6646753895329103,0.011223940986046798,11.071431679491637,0.5756621745947058
115.0,20.827007688242958,0.6648045003507804,0.011218770995182453,11.071083126065597,0.5756574460461349
116.0,20.8302699389661,0.6649335776977753,0.01121360255387585,11.070734672461583,0.5756540337415199
117.0,20.83353128327406,0.665062621540179,0.011208435662077663,11.070386318731137,0.5756509331256966
118.0,20.83679172041547,0.6651916318442925,0.0112032703197295,11.070038064925743,0.5756481964162004
119.0,20.840051249639224,0.6653206085764406,0.011198106526763856,11.069689911096821,0.5756453655242304
120.0,20.843309870194435,0.6654495517029613,0.011192944283104446,11.069341857295733,0.5756425321195895
121.0,20.84656758133047,0.6655784611902122,0.011187783588666296,11.068993903573778,0.5756396601062433
122.0,20.849824382296926,0.665707337004574,0.011182624443355878,11.068646049982194,0.5756366212520513
123.0,20.85308027234365,0.6658361791124435,0.011177466847071365,11.068298296572157,0.5756334706831
124.0,20.856335250720726,0.6659649874802328,0.011172310799702757,11.067950643394783,0.5756301573161512
125.0,20.8595893166803,0.6660937620747774,0.01116715630103843,11.067603090500226,0.5756266160205249
126.0,20.86284246947514,0.666222502863008,0.01116200334904273,11.067255637938405,0.5756230246482301
127.0,20.866094708356066,0.6663512098114016,0.011156851942055504,11.066908285760269,0.575619258492219
128.0,20.869346032574178,0.6664798828864454,0.011151702079979434,11.066561034016692,0.575615242373415
129.0,20.872596441380683,0.6666085220546544,0.011146553755087897,11.066213882758401,0.5756110664935713
130.0,20.875845934026284,0.6667371272825346,0.01114140691523458,11.065866832035383,0.5756066451211397
131.0,20.879094509762872,0.6668656985366409,0.011136261619395243,11.065519881898341,0.5756023720084723
132.0,20.882342167842598,0.6669942357835414,0.011131117867530948,11.065173032397922,0.5755986781820915
133.0,20.885588907517874,0.6671227389898297,0.01112597565959934,11.064826283584704,0.5755951029099244
134.0,20.888834728041378,0.6672512081221168,0.011120834995554083,11.064479635509207,0.5755930570860036
135.0,20.892079628666032,0.6673796431470264,0.011115695875345007,11.064133088221881,0.5755917862982068
136.0,20.89532360864505,0.6675080440312136,0.011110558298918159,11.063786641773126,0.5755904409540723
137.0,20.898566667231883,0.6676364107413434,0.01110542226621588,11.063440296213267,0.5755888311789452
138.0,20.90180880368026,0.6677647432441095,0.011100287777176905,11.063094051592575,0.5755870423415516
139.0,20.905050017244186,0.6678930415062156,0.011095154831736445,11.062747907961256,0.5755852069187845
140.0,20.908290307177918,0.6680213054943915,0.01109002342982632,11.06240186536945,0.5755830727435255
141.0,20.911529672735988,0.6681495351753889,0.01108489357137503,11.062055923867238,0.575580930000971
142.0,20.91476811317321,0.6682777305159727,0.011079765239478644,11.061710083504368,0.5755787277772612
143.0,20.91800562774466,0.6684058914829318,0.01107463840026358,11.061364344329633,0.5755765837127632
144.0,20.92124221570569,0.6685340180430751,0.011069513085164368,11.061018706392396,0.575574564954867
145.0,20.92447787631185,0.6686621101632321,0.011064389306245625,11.060673169742353,0.5755719155303063
146.0,20.927712608818414,0.6687901678102328,0.01105926702654068,11.060327734428158,0.5755681703011624
147.0,20.930946412481575,0.6689181909509546,0.01105414628826442,11.059982400499543,0.5755645301466189
148.0,20.93417928655784,0.6690461795522807,0.011049027088411231,11.059637168006105,0.5755611442958392
149.0,20.937411230303994,0.6691741335811271,0.011043909389927192,11.059292036996567,0.5755578315831472
150.0,20.94064224297707,0.6693020530044193,0.011038793229819429,11.05894700752045,0.575554342032199
151.0,20.94387232383442,0.6694299377891113,0.011033678604686483,11.058602079627216,0.5755507434474368
152.0,20.947101472133664,0.6695577879021748,0.01102856551341669,11.058257253366255,0.575546969370918
153.0,20.95032968713273,0.6696856033106053,0.01102345395625745,11.057912528786893,0.57554314196666
154.0,20.95355696808982,0.6698133839814129,0.011018343924833597,11.057567905938289,0.5755394999234246
155.0,20.956783314263422,0.6699411298816339,0.011013235396034288,11.057223384869237,0.5755367378972531
156.0,20.96000872491235,0.6700688409783231,0.011008128401768983,11.056878965628883,0.5755345714772332
157.0,20.96323319929568,0.670196517238561,0.011003022942340557,11.056534648266302,0.5755324865845471
158.0,20.966456736672797,0.6703241586294433,0.010997919018057547,11.056190432830503,0.575530315026255
159.0,20.969679336303386,0.6704517651180883,0.01099281662923361,11.055846319370437,0.5755280401667752
160.0,20.972900997447418,0.6705793366716394,0.010987715776187224,11.055502307934988,0.5755255991090061
161.0,20.976121719365178,0.6707068732572571,0.01098261645924125,11.055158398572978,0.5755230941720421
162.0,20.979341501317247,0.670834374842126,0.010977518678722707,11.054814591333159,0.5755203095459104
163.0,20.982560342564515,0.6709618413934484,0.010972422434962393,11.054470886264227,0.575517285275923
164.0,20.985778242368156,0.6710892728784557,0.01096732772699821,11.054127283414804,0.5755139703987139
165.0,20.988995199989667,0.6712166692643929,0.010962234553993432,11.05378378283345,0.5755104532792954
166.0,20.992211214690855,0.6713440305185286,0.010957142916299898,11.05344038456866,0.5755066206403515
167.0,20.995426285733828,0.6714713566081616,0.010952052814274096,11.053097088668862,0.5755024193852555
168.0,20.998640412380997,0.6715986475005978,0.010946964237949604,11.052753895182406,0.5754979950223436
169.0,21.001853593895103,0.6717259031631739,0.010941877171838279,11.052410804157553,0.5754937178530795
170.0,21.005065829539177,0.6718531235632522,0.010936791642586374,11.05206781564254,0.5754894700810481
171.0,21.00827711857658,0.671980308668208,0.010931707650594709,11.051724929685534,0.5754852177305555
172.0,21.011487460270992,0.6721074584454471,0.01092662519626705,11.051382146334642,0.5754814291371145
173.0,21.01469685388639,0.6722345728623904,0.010921544280009564,11.051039465637908,0.5754775196163847
174.0,21.017905298687083,0.6723616518864842,0.010916464902230595,11.050696887643303,0.5754740531063218
175.0,21.02111279393771,0.6724886954851992,0.010911387062504087,11.050354412398734,0.5754705997733
176.0,21.024319338903197,0.6726157036260253,0.010906310760374684,11.050012039952032,0.575467061045292
177.0,21.027524932848824,0.6727426762764747,0.010901235996282895,11.04966977035096,0.5754634864176911
178.0,21.030729575039878,0.6728696134040725,0.010896162751949679,11.049327603642395,0.5754595607623362
179.0,21.03393326474214,0.6729965149763699,0.010891091038002712,11.048985539873623,0.5754544824534943
180.0,21.03713600122188,0.673123380960948,0.010886020862504038,11.0486435790922,0.5754508100892908
181.0,21.040337783745677,0.6732502113254117,0.010880952225952865,11.048301721345622,0.5754476886870558
182.0,21.043538611580452,0.6733770060373915,0.010875885128849561,11.047959966681319,0.5754440547206253
183.0,21.046738483993444,0.6735037650645327,0.010870819571695335,11.047618315146652,0.5754402566148549
184.0,21.049937400252233,0.6736304883745111,0.010865755554991651,11.04727676678892,0.5754367539505888
185.0,21.05313535962471,0.673757175935024,0.010860693079239855,11.04693532165536,0.5754337466729625
186.0,21.05633236137914,0.6738838277137896,0.010855632144940638,11.046593979793132,0.5754308058732737
187.0,21.059528404784093,0.6740104436785478,0.010850572752593542,11.046252741249342,0.5754277660745463
188.0,21.062723489108475,0.6741370237970686,0.010845514871996085,11.045911606070716,0.5754244610703364
189.0,21.06591761362155,0.6742635680371394,0.010840458519099611,11.045570574304074,0.5754211932080332
190.0,21.069110777592893,0.6743900763665712,0.010835403708022709,11.04522964599631,0.575417991757329
191.0,21.072302980292452,0.6745165487531996,0.010830350439244196,11.044888821194247,0.5754146000549438
192.0,21.075494220990493,0.6746429851648887,0.010825298713238455,11.04454809994465,0.575412052794638
193.0,21.078684498957628,0.6747693855695122,0.010820248530475274,11.044207482294215,0.5754102108431763
