k,PSNR,SSIM,mse,Log-Gradient,Angle
0.0,20.446494433668537,0.6497682633704752,0.0,11.111761725817564,0.5698444710840113
1.0,20.449391365808523,0.6498801195766385,0.010052649516515804,11.111445202753172,0.5758838450592753
2.0,20.452727199100934,0.6500116191173897,0.011675535899400315,11.11108799181996,0.5759418136889264
3.0,20.456084926492856,0.6501441611608253,0.011786465367073957,11.110728798559135,0.5759299091237207
4.0,20.45944447131669,0.6502767941015909,0.011798618647192075,11.110369439370096,0.5759291279121452
5.0,20.46280397814954,0.6504094305807685,0.011798641081810463,11.110010091676015,0.5759227024089552
6.0,20.46616310669603,0.650542055039023,0.011795899515716614,11.10965078935004,0.5759139858745824
7.0,20.469521783842083,0.6506746645043023,0.011792400093504084,11.109291540329751,0.5759044700926484
8.0,20.472879983012724,0.6508072578583461,0.011788586397273497,11.108932347594486,0.5758958488662694
9.0,20.476237695069933,0.6509398347150548,0.011784661235326292,11.108573212074113,0.5758939584886148
10.0,20.479594914665856,0.6510723948627819,0.011780650808607011,11.108214134549607,0.575892076154217
11.0,20.482951638361875,0.6512049381756873,0.011776582511330224,11.107855115615722,0.5758891815620909
12.0,20.48630786369879,0.6513374645543175,0.01177247729479672,11.107496155672774,0.5758857842756915
13.0,20.489663588554897,0.6514699739171649,0.011768344029617385,11.107137254907636,0.5758829657665221
14.0,20.493018811341337,0.651602466206452,0.011764196618354924,11.106778413419482,0.5758801866930782
15.0,20.49637353094793,0.6517349413807648,0.011760039472117097,11.106419631317465,0.5758773295924514
16.0,20.49972774644385,0.6518673993962597,0.011755876277852644,11.106060908718096,0.5758748949340068
17.0,20.503081456872483,0.651999840210893,0.011751711934314327,11.105702245703128,0.5758717768908493
18.0,20.506434661257906,0.6521322637820804,0.01174753928227333,11.105343642370508,0.5758712860096327
19.0,20.509787358706607,0.6522646700704638,0.011743366697541462,11.104985098799691,0.5758695276595125
20.0,20.51313954832253,0.6523970590368059,0.011739194468731102,11.104626615064415,0.5758676013956889
21.0,20.516491229183096,0.6525294306431579,0.011735021115105,11.104268191250249,0.5758655544835086
22.0,20.519842400394317,0.652661784850819,0.011730847742396163,11.10390982743208,0.5758634565265519
23.0,20.5231930610908,0.6527941216214869,0.011726674927904069,11.103551523681052,0.5758613471118674
24.0,20.526543210387246,0.6529264409158702,0.011722501782729692,11.103193280073237,0.5758591662097211
25.0,20.529892847410387,0.6530587426956177,0.011718328817543077,11.102835096673873,0.5758568946523351
26.0,20.533241971261027,0.653191026920057,0.011714154296220289,11.102476973553227,0.5758546503517852
27.0,20.53659058105392,0.6533232935503452,0.011709978446830166,11.102118910781838,0.575852457984296
28.0,20.539938675926443,0.653455542548503,0.011705801803354614,11.101760908433912,0.5758502604338301
29.0,20.543286255005132,0.6535877738763869,0.011701625102603263,11.101402966576273,0.5758481935451784
30.0,20.546633317429176,0.6537199874960685,0.011697448545430814,11.101045085282495,0.5758462027875885
31.0,20.549979862337512,0.6538521833696277,0.01169327265213122,11.100687264620131,0.5758441467467953
32.0,20.553325888868798,0.6539843614591407,0.011689097429759565,11.100329504656557,0.5758420447921891
33.0,20.55667139615254,0.6541165217265313,0.011684922426750701,11.099971805459898,0.5758398780021002
34.0,20.560016383315492,0.654248664133751,0.011680747065090686,11.099614167092708,0.5758376426060529
35.0,20.563360849495815,0.6543807886428774,0.011676572350542208,11.099256589621966,0.5758353309822409
36.0,20.566704793795164,0.6545128952154401,0.011672397575121679,11.098899073113113,0.575832947983765
37.0,20.57004821527766,0.6546449838124416,0.011668222161857877,11.098541617634222,0.5758305635422885
38.0,20.573391113073605,0.6547770543955974,0.011664046684611625,11.098184223251558,0.5758282297678163
39.0,20.57673348632057,0.6549091069269534,0.011659871638389855,11.097826890031623,0.5758259455231878
40.0,20.580075334156543,0.655041141368593,0.011655697216043436,11.097469618040908,0.5758237253857489
41.0,20.583416655719162,0.6551731576825833,0.011651523419276142,11.097112407345852,0.5758214946720186
42.0,20.586757450145626,0.65530515583099,0.01164735024950263,11.096755258012855,0.5758192765885308
43.0,20.59009771657278,0.6554371357758638,0.011643177707886088,11.096398170108275,0.5758170330333255
44.0,20.593437454137042,0.6555690974792542,0.011639005795369792,11.096041143698436,0.575814719820173
45.0,20.596776661974452,0.6557010409031919,0.011634834512703716,11.095684178849625,0.5758123002439842
46.0,20.600115339220622,0.655832966009703,0.0116306638604673,11.095327275628103,0.5758096836389618
47.0,20.603453485010775,0.6559648727608026,0.011626493839088427,11.094970434100093,0.5758070933508891
48.0,20.606791098479732,0.6560967611184982,0.011622324382680665,11.094613654331908,0.5758045674645912
49.0,20.610128178761894,0.6562286310447859,0.011618155062071084,11.094256936389035,0.5758037748093273
50.0,20.613464724991264,0.6563604825016487,0.011613986247617565,11.093900280336346,0.5758002927449826
51.0,20.616800736301435,0.6564923154510665,0.01160981787549178,11.09354368624046,0.5757975666325588
52.0,20.62013621182559,0.6566241298550035,0.01160564999833507,11.093187154165328,0.5757948235802122
53.0,20.623471150696503,0.656755925675418,0.01160148258291911,11.092830684176938,0.5757920345459538
54.0,20.626805552046555,0.6568877028742545,0.011597315745596942,11.09247427634131,0.5757894102961775
55.0,20.630139415007704,0.6570194614134502,0.011593149523974161,11.092117930724458,0.5757870515617248
56.0,20.633472738711518,0.6571512012549356,0.0115889839187835,11.091761647392374,0.5757846908886648
57.0,20.636805522287332,0.6572829223605997,0.011584818803397012,11.091405426410859,0.5757823127263484
58.0,20.64013776486516,0.6574146246923364,0.011580654248146706,11.091049267845777,0.5757798797966333
59.0,20.643469465575485,0.6575463082120492,0.011576490312251869,11.09069317176305,0.5757772970585021
60.0,20.646800623548344,0.6576779728816308,0.01157232699643979,11.090337138228582,0.5757745062923975
61.0,20.650131237913406,0.6578096186629558,0.011568164301397609,11.089981167308258,0.5757715932591086
62.0,20.653461307799937,0.6579412455179007,0.011564002227775884,11.089625259067944,0.5757698568843304
63.0,20.656790832336785,0.658072853408329,0.011559840776191484,11.089269413573492,0.5757683667630379
64.0,20.660119810652393,0.6582044422960859,0.011555679947230155,11.088913630890731,0.5757665004124098
65.0,20.663448241874814,0.6583360121430195,0.011551519741448614,11.088557911085477,0.575765695683702
66.0,20.666776125131705,0.6584675629109616,0.011547360159376577,11.08820225422353,0.5757647107026282
67.0,20.670103459550305,0.6585990945617367,0.011543201201518333,11.087846660370667,0.5757626571772473
68.0,20.673430244257474,0.6587306070571599,0.011539042748854844,11.087491129593468,0.5757602185194212
69.0,20.676756478379662,0.6588621003590315,0.011534884899086943,11.087135661957818,0.5757573191785162
70.0,20.68008216104292,0.6589935744291525,0.011530727676314115,11.086780257529423,0.5757543039034919
71.0,20.68340729137291,0.6591250292293069,0.011526571081060775,11.08642491637397,0.5757519197490233
72.0,20.686731868494892,0.6592564647212744,0.011522415113829662,11.086069638557133,0.5757500756217799
73.0,20.69005589153373,0.6593878808668169,0.011518259775102513,11.085714424144566,0.5757479688504334
74.0,20.693379359613896,0.6595192776277025,0.011514104969972535,11.085359273201911,0.5757457376095471
75.0,20.696702271858495,0.6596506549656226,0.0115099507604188,11.085004185794203,0.5757433537778616
76.0,20.70002462738944,0.6597820128422319,0.011505797133343943,11.084649161985975,0.5757404312107087
77.0,20.703346425330082,0.659913351219262,0.011501644137431212,11.084294201842821,0.5757371687810965
78.0,20.706667664803376,0.6600446700584417,0.011497491773175075,11.083939305430317,0.5757359236000684
79.0,20.709988344931887,0.6601759693214834,0.011493340041052373,11.08358447281402,0.5757344999116395
80.0,20.71330846483781,0.6603072489700966,0.01148918894152248,11.083229704059475,0.5757324834427369
81.0,20.716628023642944,0.6604385089659801,0.011485038475027425,11.082874999232214,0.5757301101664979
82.0,20.7199470204687,0.6605697492708246,0.011480888641992043,11.082520358397744,0.5757275981252487
83.0,20.723265454436117,0.6607009698463108,0.011476739442824084,11.082165781621566,0.5757246416427231
84.0,20.726583324665846,0.6608321706541123,0.011472590877914461,11.08181126896916,0.5757242674121731
85.0,20.729900630278163,0.660963351655894,0.01146844294763731,11.08145682050599,0.5757228579489434
86.0,20.733217370392957,0.6610945128133102,0.011464295652350177,11.081102436297504,0.5757212466772463
87.0,20.736533544129752,0.6612256540880113,0.011460148992394172,11.080748116409138,0.5757199402377549
88.0,20.73984915060768,0.6613567754416366,0.01145600296809407,11.080393860906307,0.5757176765262452
89.0,20.7431641889455,0.6614878768358136,0.011451857579758482,11.080039669854413,0.5757147819452103
90.0,20.74647865826161,0.6616189582321694,0.011447712827679939,11.079685543318837,0.5757130699115527
91.0,20.74979255767401,0.6617500195923182,0.011443568712135118,11.07933148136495,0.5757117373692282
92.0,20.75310588630034,0.6618810608778642,0.011439425233384882,11.078977484058104,0.5757103606242276
93.0,20.75641864325788,0.6620120820504053,0.011435282391674476,11.078623551463632,0.575708810094436
94.0,20.75973082766351,0.6621430830715352,0.011431140187233629,11.078269683646855,0.5757071392115429
95.0,20.763042438633775,0.6622740639028354,0.011426998620276692,11.077915880673075,0.5757054021290271
96.0,20.766353475284816,0.6624050245058796,0.011422857691002848,11.077562142607578,0.5757035381568848
97.0,20.769663936732435,0.6625359648422299,0.011418717399596172,11.07720846951563,0.5757013925880317
98.0,20.772973822092048,0.6626668848734513,0.011414577746225892,11.076854861462488,0.57569909887522
99.0,20.776283130478724,0.6627977845610942,0.011410438731046506,11.076501318513385,0.5756967082651069
100.0,20.779591861007148,0.6629286638666999,0.011406300354197815,11.076147840733537,0.5756943863656122
101.0,20.782900012791657,0.6630595227518031,0.011402162615638504,11.075794428188148,0.5756924513854117
102.0,20.78620758494621,0.6631903611779331,0.011398025512822013,11.075441080942399,0.5756907045811003
103.0,20.789514576584438,0.6633211791066098,0.011393889045942572,11.075087799061452,0.575688802153449
104.0,20.79282098681957,0.6634519764993451,0.01138975321518353,11.074734582610454,0.5756867036452008
105.0,20.79612681476451,0.6635827533176459,0.0113856180207175,11.074381431654531,0.5756849471064979
106.0,20.79943205953178,0.6637135095230091,0.011381483462706232,11.074028346258796,0.5756828012906746
107.0,20.80273672023357,0.6638442450769272,0.011377349541301058,11.07367532648834,0.5756806096458041
108.0,20.806040795981705,0.6639749599408785,0.011373216256642596,11.073322372408239,0.5756793057179285
109.0,20.809344285887647,0.6641056540763441,0.011369083608861047,11.072969484083549,0.5756776911986009
110.0,20.81264718906251,0.6642363274447899,0.01136495159807637,11.072616661579309,0.5756753436715516
111.0,20.81594950461707,0.6643669800076798,0.011360820224398134,11.072263904960538,0.5756723152032609
112.0,20.81925123166174,0.6644976117264675,0.011356689487925859,11.071911214292241,0.5756686545321213
113.0,20.822552369306592,0.6646282225625978,0.011352559388748996,11.071558589639398,0.575663959955131
114.0,20.82585291666134,0.6647588124775159,0.011348429926947158,11.071206031066978,0.5756590205997963
115.0,20.82915287283537,0.6648893814326502,0.011344301102590198,11.070853538639927,0.5756551197090337
116.0,20.83245223693769,0.6650199293894344,0.0113401729157383,11.070501112423171,0.5756518538291592
117.0,20.83575100807701,0.6651504563092804,0.011336045366442211,11.070148752481622,0.5756490894675809
118.0,20.839049185361667,0.6652809621536108,0.011331918454743302,11.069796458880168,0.5756462266316537
119.0,20.842346767899656,0.6654114468838254,0.011327792180673755,11.069444231683683,0.5756433966806813
120.0,20.845643754798644,0.6655419104613264,0.01132366654425677,11.069092070957018,0.5756405102267931
121.0,20.848940145165958,0.6656723528475075,0.011319541545506647,11.068739976765007,0.5756374911692046
122.0,20.852235938108574,0.6658027740037527,0.011315417184429034,11.068387949172466,0.5756343360431827
123.0,20.855531132733166,0.6659331738914478,0.011311293461020925,11.06803598824419,0.5756310339748748
124.0,20.858825728146023,0.666063552471964,0.011307170375271191,11.067684094044953,0.5756275026403136
125.0,20.86211972345619,0.6661939097073389,0.011303047927636485,11.067332266638003,0.5756238624957347
126.0,20.865413117770263,0.6663242455591448,0.011298926114627437,11.066980506087608,0.5756201101791651
127.0,20.868705910193572,0.6664545599887447,0.011294804935659764,11.066628812458504,0.5756161066355557
128.0,20.871998099831124,0.666584852957483,0.01129068439073411,11.066277185815396,0.5756118901357138
129.0,20.875289685787006,0.6667151244266908,0.011286564444243008,11.06592562622251,0.5756074632313167
130.0,20.87858066716511,0.6668453743577,0.011282445100381015,11.065574133744114,0.5756030410127474
131.0,20.881871043069495,0.666975602711844,0.011278326389945251,11.065222708444868,0.5755992700508146
132.0,20.8851608126039,0.6671058094504486,0.011274208312994378,11.064871350389408,0.575595597724616
133.0,20.888449974871747,0.6672359945348373,0.011270090869583168,11.06452005964236,0.5755933468243126
134.0,20.89173852897612,0.6673661579263253,0.011265974059762306,11.064168836268317,0.5755920844979606
135.0,20.895026474019804,0.667496299586221,0.011261857883578443,11.063817680331862,0.5755907418808194
136.0,20.898313809105247,0.6676264194758357,0.011257742341074226,11.06346659189755,0.5755891397785213
137.0,20.90160053333459,0.6677565175564623,0.011253627432288442,11.06311557102992,0.575587332997208
138.0,20.90488664580966,0.6678865937893942,0.011249513157256096,11.062764617793489,0.5755855033990899
139.0,20.908172145631937,0.6680166481359239,0.011245399516008446,11.06241373225275,0.575583356504023
140.0,20.911457031902643,0.6681466805573315,0.011241286508573181,11.062062914472182,0.5755812197044302
141.0,20.91474130372263,0.668276691014893,0.011237174134974468,11.061712164516237,0.575578993542302
142.0,20.91802496019247,0.6684066794698826,0.011233062357999897,11.061361482448715,0.5755768309888855
143.0,20.921308000412413,0.6685366458835663,0.01122895116789619,11.061010868332678,0.5755747937181992
144.0,20.924590423482403,0.6686665902172058,0.011224840609877693,11.060660322232529,0.5755719986120957
145.0,20.927872228501563,0.6687965124320451,0.011220730652633615,11.060309844211794,0.5755681736608523
146.0,20.931153414568996,0.6689264124893306,0.011216621311847209,11.059959434334418,0.5755645169622534
147.0,20.93443398078375,0.6690562903503103,0.011212512603414191,11.059609092664758,0.5755610631844007
148.0,20.937713926244562,0.6691861459762246,0.011208404501417921,11.059258819266562,0.5755576932997465
149.0,20.940993250049857,0.6693159793283089,0.011204297012744144,11.05890861420375,0.5755541472332742
150.0,20.944271951297765,0.6694457903677958,0.011200190150520026,11.058558477540593,0.5755504922201053
151.0,20.947550029086116,0.6695755790559104,0.01119608391328041,11.058208409341338,0.5755466461131125
152.0,20.950827482512437,0.6697053453538766,0.011191978301369452,11.057858409670208,0.5755428088406728
153.0,20.954104310673966,0.6698350892229109,0.011187873315137478,11.057508478591407,0.5755392394972496
154.0,20.957380512667633,0.6699648106242253,0.011183768922347691,11.057158616168694,0.5755365773473027
155.0,20.96065608759007,0.6700945095190307,0.011179665148122127,11.056808822466135,0.5755345184933299
156.0,20.963931034537634,0.6702241858685278,0.011175562000298934,11.056459097547869,0.5755323596692373
157.0,20.967205352606374,0.6703538396339216,0.011171459479283186,11.056109441478014,0.5755301824263911
158.0,20.970479040892048,0.6704834707764046,0.011167357585485368,11.055759854320664,0.5755278317048832
159.0,20.973752098490117,0.6706130792571696,0.011163256319320736,11.055410336139891,0.5755253579796932
160.0,20.977024524495768,0.6707426650374039,0.011159155681209041,11.055060886999748,0.5755227509969553
161.0,20.980296318003887,0.670872228078288,0.011155055671574213,11.05471150696426,0.5755198551779673
162.0,20.983567478109073,0.6710017683410087,0.011150956290844106,11.054362196097431,0.5755167137338527
163.0,20.986838003905646,0.6711312857867341,0.011146857537951894,11.054012954463245,0.5755132279882099
164.0,20.990107894487636,0.6712607803766417,0.01114275941232674,11.053663782125652,0.5755095303642486
165.0,20.993377148948774,0.6713902520718946,0.011138661914417454,11.053314679148585,0.575505490962253
166.0,20.996645766382535,0.6715197008336657,0.011134565044677469,11.052965645595952,0.5755011380218628
167.0,20.99991374588209,0.6716491266231072,0.011130468800496939,11.052616681531635,0.5754966933532634
168.0,21.003181086540348,0.6717785294013808,0.01112637315203763,11.052267787019446,0.5754923694759432
169.0,21.006447787449925,0.6719079091296402,0.01112227813319486,11.051918962123223,0.5754880915525705
170.0,21.009713847703154,0.6720372657690349,0.011118183744466702,11.05157020690678,0.5754840390170756
171.0,21.012979266392115,0.6721665992807134,0.01111408998635417,11.051221521433908,0.5754801677952034
172.0,21.016244042608587,0.6722959096258162,0.01110999685936083,11.05087290576838,0.5754763456038275
173.0,21.019508175444088,0.672425196765491,0.011105904363992333,11.050524359973934,0.5754728489434434
174.0,21.022771663989847,0.6725544606608699,0.011101812499622006,11.050175884114285,0.5754693453577534
175.0,21.02603450733685,0.6726837012730886,0.011097721266178492,11.049827478253116,0.5754657773052637
176.0,21.029296704575774,0.6728129185632783,0.011093630664200814,11.049479142454079,0.5754620200240971
177.0,21.03255825479679,0.672942112492558,0.011089540679084225,11.049130876780136,0.5754574846585174
178.0,21.03581915708987,0.6730712830220459,0.011085451314531309,11.048782681294377,0.5754518494754706
179.0,21.039079410544925,0.6732004301128599,0.011081362582107778,11.048434556060375,0.575449602672476
180.0,21.042339014251578,0.673329553726128,0.011077274482411557,11.048086501141684,0.5754459185492639
181.0,21.04559796729921,0.6734586538229618,0.011073187016041867,11.047738516601827,0.5754419637416518
182.0,21.04885626877692,0.6735877303644807,0.01106910018359883,11.04739060250431,0.5754382507844529
183.0,21.052113917773553,0.6737167833117997,0.01106501398568296,11.047042758912609,0.5754346730061612
184.0,21.055370913377686,0.6738458126260266,0.011060928422894606,11.046694985890177,0.5754312375626406
185.0,21.058627254677653,0.6739748182682673,0.01105684349583363,11.046347283500443,0.5754280460593448
186.0,21.061882940761492,0.6741038001996325,0.011052759205098751,11.045999651806815,0.575424735014643
187.0,21.06513797071701,0.674232758381223,0.011048675518066287,11.045652090872325,0.5754212460183253
188.0,21.068392343631764,0.6743616927741432,0.011044592456426664,11.045304600760206,0.5754179125639011
189.0,21.07164605859303,0.6744906033394885,0.011040510031296611,11.044957181533778,0.5754144501576993
190.0,21.074899114687824,0.6746194900383594,0.011036428243253509,11.044609833256334,0.5754117913530766
191.0,21.078151511002943,0.674748352831851,0.011032347092870329,11.044262555991144,0.5754099258678816
192.0,21.08140324662491,0.6748771916810575,0.011028266580715138,11.043915349801448,0.5754081343865306
193.0,21.08465432063998,0.6750060065470689,0.011024186707350836,11.04356821475047,0.5754059474517529
