k,PSNR,SSIM,mse,Log-Gradient,Angle
0.0,20.446494433668537,0.6497682633704752,0.0,11.111761725817564,0.5698444710840113
1.0,20.449390850988934,0.6498800996983095,0.010050863172754516,11.11144525900432,0.5758838452253797
2.0,20.452725576722216,0.6500115559936216,0.011671699139390451,11.111088167797009,0.5759418165097849
3.0,20.456081599999422,0.6501440312406569,0.011780543766502017,11.11072915808201,0.5759299102741254
4.0,20.459438843935157,0.6502765738208091,0.011790605733659466,11.110370046277874,0.5759291328540805
5.0,20.462795453216263,0.6504090963773378,0.011788536620540314,11.110011009795404,0.5759227030339718
6.0,20.466151087717908,0.6505415833558557,0.011783704636042381,11.109652082489275,0.5759139831663228
7.0,20.46950567451013,0.6506740317898322,0.011778116356616184,11.109293272277087,0.5759044555745735
8.0,20.472859187207696,0.6508064405667583,0.011772215507008755,11.108934582117575,0.5758958555846038
9.0,20.47621161686468,0.6509388093063876,0.011766204969879337,11.108576012919762,0.5758939774403664
10.0,20.479562958327193,0.6510711378030126,0.011760110963125105,11.108217565443564,0.5758920929077855
11.0,20.482913208351906,0.6512034259367849,0.011753960897607956,11.107859240262504,0.5758891971935706
12.0,20.486262364676257,0.6513356736143026,0.011747775740103569,11.107501037755512,0.5758857997372248
13.0,20.489610425376444,0.6514678807601634,0.011741564365843006,11.107142958087955,0.575882985802792
14.0,20.49295738906254,0.6516000473227445,0.011735340685510796,11.106785001337432,0.5758802100285664
15.0,20.496303254824394,0.6517321732668272,0.011729109115229255,11.106427167591427,0.5758773655285955
16.0,20.499648021932146,0.6518642585548132,0.011722873347039225,11.106069456944693,0.5758749283118937
17.0,20.502991689631138,0.6519963031509465,0.01171663828186957,11.105711869457146,0.5758718544481657
18.0,20.50633425714842,0.6521283070189771,0.011710396753932126,11.105354405204812,0.575871342309522
19.0,20.509675723794444,0.6522602701259265,0.011704157149387856,11.104997064245136,0.5758695919563042
20.0,20.51301608887809,0.6523921924389764,0.011697919755773546,11.104639846629778,0.5758676731545004
21.0,20.516355351682655,0.6525240739266489,0.011691683088170195,11.10428275242215,0.5758656320990138
22.0,20.5196935115211,0.6526559145567533,0.011685448256235818,11.103925781674885,0.5758635414164958
23.0,20.52303056773589,0.6527877142975419,0.01167921583610583,11.103568934436806,0.5758614392818607
24.0,20.5263665196506,0.6529194731163225,0.011672984938189242,11.103212210761587,0.5758592686867116
25.0,20.529701366601813,0.6530511909813916,0.011666756071759512,11.10285561069197,0.5758570080544653
26.0,20.533035107901068,0.6531828678587573,0.011660527494665212,11.102499134275687,0.5758547767855015
27.0,20.53636774287501,0.6533145037163156,0.011654299437786701,11.102142781560666,0.5758525874718231
28.0,20.539699270873783,0.653446098522868,0.011648072441072662,11.101786552598378,0.5758503961514725
29.0,20.54302969123773,0.653577652247091,0.011641847238457393,11.101430447432856,0.5758483255420465
30.0,20.546359003320774,0.653709164857923,0.011635624029181661,11.101074466114815,0.5758463468992155
31.0,20.549687206477603,0.6538406363243561,0.011629403336599108,11.10071860868885,0.575844316425179
32.0,20.553014300063573,0.6539720666154206,0.011623185166226936,11.100362875199313,0.5758422275234149
33.0,20.556340283425833,0.6541034557000399,0.011616969061107084,11.100007265691236,0.5758400762319893
34.0,20.55966515590986,0.6542348035472091,0.011610754447967957,11.099651780203995,0.5758378620760197
35.0,20.562988916873486,0.6543661101260957,0.011604542331924648,11.099296418781307,0.5758355657870899
36.0,20.566311565638525,0.6544973754053545,0.011598331994838942,11.098941181465275,0.5758332016823737
37.0,20.569633101491128,0.6546285993531678,0.011592122869637352,11.0985860683006,0.5758308210046701
38.0,20.572953523784264,0.6547597819384764,0.011585915526610731,11.098231079330033,0.5758284957024363
39.0,20.57627283187912,0.6548909231305932,0.011579710465112974,11.097876214596521,0.5758262242972501
40.0,20.579591025138303,0.6550220228989044,0.011573507875349075,11.097521474142916,0.5758240095606254
41.0,20.582908102925003,0.6551530812128412,0.011567307758588599,11.097166858011938,0.5758217966297694
42.0,20.58622406460301,0.6552840980418628,0.01156111011581174,11.096812366246196,0.5758195796743292
43.0,20.589538909536692,0.6554150733554671,0.011554914947746861,11.096457998888178,0.5758173673098865
44.0,20.59285263709103,0.6555460071231876,0.01154872225490214,11.096103755980259,0.57581507841002
45.0,20.596165246631564,0.6556768993145882,0.011542532037592382,11.095749637564706,0.5758127012928441
46.0,20.59947673752443,0.6558077498992735,0.011536344295961553,11.095395643683679,0.5758101387863211
47.0,20.60278710913634,0.6559385588468776,0.011530159030002183,11.095041774379222,0.5758075960561403
48.0,20.606096360834595,0.6560693261270757,0.011523976169281521,11.094688029693407,0.5758049817256802
49.0,20.60940449198708,0.65620005170957,0.011517795290806716,11.094334409667399,0.5758050337509995
50.0,20.612711501962252,0.6563307355641014,0.011511616760350648,11.09398091434164,0.5758009432246814
51.0,20.616017390129144,0.6564613776604463,0.01150544051346023,11.093627543758277,0.5757981928915047
52.0,20.61932215585739,0.6565919779684143,0.011499266603298528,11.093274297956695,0.5757954905126829
53.0,20.622625798517195,0.6567225364578492,0.011493094995570944,11.092921176978248,0.5757927335499177
54.0,20.62592831747935,0.6568530530986288,0.011486925807950214,11.092568180864244,0.5757900224180782
55.0,20.629229712115233,0.6569835278606698,0.01148075907732316,11.092215309655911,0.5757876747076388
56.0,20.632529981796793,0.6571139607139176,0.0114745948039904,11.091862563394374,0.5757853346978138
57.0,20.63582912589474,0.65724435162833,0.01146843285683679,11.09150994212049,0.5757829828473481
58.0,20.639127143781497,0.6573747005739129,0.011462273312633806,11.091157445875112,0.5757805927062595
59.0,20.64242403483092,0.6575050075207217,0.011456116227360907,11.090805074699064,0.5757780894962464
60.0,20.645719798417442,0.657635272438847,0.011449961601314472,11.090452828633083,0.5757754209811654
61.0,20.649014433916086,0.6577654952984114,0.01144380943475096,11.090100707717808,0.5757723513293754
62.0,20.65230794070246,0.657895676069578,0.011437659727890508,11.08974871199378,0.5757703199323999
63.0,20.65560031815277,0.6580258147225372,0.011431512480919826,11.089396841501452,0.5757688852603188
64.0,20.65889156564382,0.658155911227521,0.011425367693994638,11.08904509628118,0.5757671454161513
65.0,20.662181682553,0.6582859655547953,0.011419225367242089,11.088693476373232,0.5757658795158239
66.0,20.665470668258294,0.6584159776746561,0.011413085500762433,11.088341981817774,0.5757651739028621
67.0,20.668758522138283,0.658545947557439,0.011406948094630812,11.087990612654883,0.5757634699946624
68.0,20.672045243572153,0.658675875173515,0.011400813021678979,11.087639368925409,0.5757612205294312
69.0,20.67533083193968,0.6588057604932888,0.011394680393379908,11.087288250669332,0.5757585414239058
70.0,20.678615286621227,0.6589356034871997,0.011388550226925056,11.08693725792643,0.5757555354035031
71.0,20.681898606997798,0.6590654041257231,0.011382422522410916,11.08658639073638,0.5757526518755347
72.0,20.685180792450947,0.6591951623793714,0.011376297279912437,11.086235649138779,0.5757508902815829
73.0,20.68846184236287,0.6593248782186881,0.011370174481133049,11.085885033173117,0.5757489120592759
74.0,20.691741756116343,0.6594545516142577,0.011364054054409678,11.085534542878804,0.5757467976611652
75.0,20.69502053309408,0.6595841825366585,0.011357936074924373,11.085184178294735,0.5757445899217447
76.0,20.698298172678044,0.6597137709564437,0.011351820501275181,11.084833939458894,0.5757420306083082
77.0,20.70157467425288,0.6598433168442984,0.011345707390656387,11.084483826410407,0.5757388599663787
78.0,20.70485003720387,0.6599728201709522,0.011339596743138891,11.084133839188313,0.5757363874223167
79.0,20.708124260916883,0.6601022809071643,0.011333488558776299,11.08378397783156,0.5757353676138989
80.0,20.711397344778426,0.6602316990237359,0.011327382837605043,11.083434242379,0.5757337035991237
81.0,20.71466928817561,0.6603610744914976,0.011321279579644686,11.083084632869403,0.5757315358685388
82.0,20.71794009049617,0.6604904072813219,0.011315178784897795,11.082735149341437,0.5757290777430671
83.0,20.721209751128455,0.6606196973641122,0.011309080453350398,11.082385791833683,0.5757264323475239
84.0,20.72447826946144,0.6607489447108116,0.011302984584971873,11.082036560384633,0.5757247227165437
85.0,20.72774564488472,0.6608781492923975,0.011296891179715314,11.081687455032686,0.5757237882765138
86.0,20.73101187678851,0.6610073110798821,0.011290800237517457,11.081338475816148,0.5757223104170375
87.0,20.73427696456365,0.6611364300443193,0.011284711758299046,11.080989622773236,0.5757207204644759
88.0,20.737540907601616,0.6612655061567922,0.011278625741964829,11.080640895942073,0.5757196656818906
89.0,20.740803705294496,0.6613945393884227,0.011272542188403706,11.080292295360694,0.5757166823496634
90.0,20.74406535703502,0.6615235297103731,0.011266461097488922,11.079943821067038,0.5757141818495006
91.0,20.74732586221653,0.6616524770938372,0.011260382469078156,11.079595473098959,0.5757126660162816
92.0,20.75058522023302,0.6617813815100474,0.011254306303013613,11.079247251494213,0.5757113944044802
93.0,20.75384343047911,0.6619102429302709,0.011248232599122315,11.078899156290467,0.5757100256256557
94.0,20.757100492350055,0.6620390613258105,0.01124216135721599,11.078551187525296,0.5757084579629091
95.0,20.760356405241723,0.6621678366680126,0.011236092577091447,11.078203345236187,0.5757068195382814
96.0,20.763611168550664,0.6622965689282526,0.011230026258530599,11.077855629460531,0.5757051278214593
97.0,20.766864781674023,0.6624252580779464,0.011223962401300653,11.077508040235628,0.5757032769078444
98.0,20.77011724400961,0.6625539040885436,0.01121790100515421,11.077160577598686,0.575701135284277
99.0,20.773368554955873,0.6626825069315323,0.01121184206982953,11.076813241586827,0.57569886899113
100.0,20.77661871391188,0.6628110665784411,0.011205785595050552,11.076466032237072,0.575696536100133
101.0,20.779867720277387,0.66293958300083,0.011199731580527205,11.076118949586355,0.5756942399709672
102.0,20.783115573452754,0.6630680561702982,0.011193680024669132,11.07577199367152,0.575692362201506
103.0,20.786362272839007,0.6631964860584815,0.011187630925693462,11.075425164529312,0.5756906337930153
104.0,20.78960781783781,0.6633248726370523,0.011181584283366032,11.075078462196384,0.5756887640629698
105.0,20.792852207851496,0.6634532158777239,0.011175540097442142,11.0747318867093,0.5756867327461844
106.0,20.796095442283033,0.6635815157522402,0.01116949836766668,11.07438543810453,0.575684986862681
107.0,20.79933752053605,0.6637097722323883,0.011163459093774062,11.07403911641845,0.5756828959326913
108.0,20.802578442014806,0.6638379852899888,0.011157422275488571,11.07369292168735,0.5756806813938735
109.0,20.805818206124258,0.663966154896901,0.011151387912524175,11.073346853947417,0.5756793874418551
110.0,20.80905681226998,0.664094281025024,0.011145356004584847,11.073000913234756,0.5756778590051274
111.0,20.812294259858227,0.6642223636462868,0.011139326551364523,11.072655099585376,0.5756756415015668
112.0,20.81553054829591,0.6643504027326651,0.011133299552547264,11.072309413035187,0.575672767146345
113.0,20.8187656769906,0.6644783982561662,0.011127275007807481,11.071963853620018,0.5756693008688202
114.0,20.821999645350523,0.6646063501888385,0.011121252916809843,11.071618421375597,0.5756649076621311
115.0,20.825232452784576,0.664734258502765,0.011115233279209573,11.071273116337562,0.5756599880830111
116.0,20.828464098702334,0.6648621231700647,0.01110921609465254,11.070927938541457,0.575655834571975
117.0,20.83169458251401,0.6649899441629045,0.011103201362775416,11.070582888022738,0.5756526167743788
118.0,20.83492390363051,0.6651177214534744,0.011097189083205755,11.070237964816762,0.5756497734696165
119.0,20.8381520614634,0.665245455014012,0.011091179255562246,11.069893168958796,0.5756469965289833
120.0,20.841379055424927,0.6653731448167954,0.01108517187945479,11.069548500484014,0.575644210786441
121.0,20.84460488492799,0.6655007908341298,0.011079166954484744,11.069203959427497,0.5756413761551132
122.0,20.84782954938618,0.6656283930383681,0.011073164480245017,11.068859545824237,0.5756384751864554
123.0,20.85105304821377,0.6657559514018933,0.01106716445632023,11.068515259709123,0.5756354154558503
124.0,20.85427538082568,0.6658834658971341,0.01106116688228707,11.068171101116963,0.5756322407895267
125.0,20.85749654663833,0.666010936496729,0.011055171757534926,11.06782707008207,0.5756288835616131
126.0,20.86071654507121,0.6661383631738781,0.011049179080232601,11.067483166637489,0.5756253069749296
127.0,20.863935375541296,0.666265745901122,0.011043188847978664,11.067139390817756,0.5756217543715466
128.0,20.86715303746624,0.6663930846510411,0.011037201060362841,11.066795742657314,0.5756179543885117
129.0,20.87036953026443,0.6665203793962535,0.011031215716969222,11.066452222190513,0.5756138725459977
130.0,20.87358485335411,0.666647630109397,0.011025232766051548,11.066108829450956,0.575609706385923
131.0,20.876799006154812,0.6667748367631626,0.01101925224174248,11.065765564472608,0.5756052671807033
132.0,20.880011988087,0.6669019993302858,0.011013274159893727,11.065422427289546,0.575601294868407
133.0,20.88322379857182,0.6670291177835361,0.011007298520150078,11.06507941793576,0.5755976102002635
134.0,20.88643443703112,0.6671561920957284,0.011001325322152691,11.064736536445137,0.5755942423408846
135.0,20.88964390288744,0.6672832222397144,0.010995354565538943,11.064393782851482,0.5755926213407431
136.0,20.89285219556401,0.6674102081883772,0.0109893862499425,11.064051157188498,0.575591341387213
137.0,20.896059314484752,0.6675371499146509,0.01098342037499339,11.063708659489798,0.5755899498619106
138.0,20.899265259074305,0.6676640473914955,0.010977456940318176,11.0633662897889,0.5755883002811428
139.0,20.902470028757985,0.6677909005919226,0.010971495945539974,11.06302404811923,0.5755865414724478
140.0,20.90567362296181,0.6679177094889729,0.010965537390278574,11.062681934514119,0.5755846352038961
141.0,20.908876041112507,0.6680444740557331,0.010959581274150627,11.062339949006804,0.5755824897571573
142.0,20.912077282637505,0.6681711942653231,0.010953627595734435,11.061998091630414,0.5755803564769281
143.0,20.91527734696493,0.6682978700909056,0.010947676305398847,11.061656362417102,0.5755781519623718
144.0,20.918476233523613,0.668424501505679,0.010941727417334323,11.061314761398789,0.5755760642355668
145.0,20.92167394174309,0.6685510884828852,0.010935780965138591,11.06097328860835,0.5755740546689966
146.0,20.924870471053136,0.668677630995793,0.010929836917834881,11.060631944077764,0.5755713232022179
147.0,20.92806582088449,0.6688041290177135,0.010923895288768621,11.060290727839279,0.575567608687188
148.0,20.931259990668828,0.6689305825220065,0.01091795609467417,11.05994963992551,0.5755640608532392
149.0,20.93445297983855,0.6690569914820671,0.01091201930871225,11.059608680368386,0.5755607156432541
150.0,20.937644787826773,0.669183355871335,0.010906084939141643,11.059267849199973,0.5755574244840411
151.0,20.940835414067305,0.6693096756632815,0.010900153000312102,11.058927146452586,0.5755539569497274
152.0,20.944024857994698,0.6694359508314248,0.01089422348821488,11.05858657215844,0.5755503840052213
153.0,20.947213119044186,0.669562181349319,0.010888296402125878,11.058246126349655,0.5755466440175804
154.0,20.950400196651753,0.6696883671905575,0.010882371741979948,11.057905809058258,0.5755428472491545
155.0,20.95358609025409,0.6698145083287752,0.01087644947880393,11.057565620315827,0.5755392307959275
156.0,20.956770799288606,0.6699406047376453,0.010870529629224933,11.057225560154052,0.5755364797500881
157.0,20.959954323193443,0.6700666563908855,0.010864612205112962,11.056885628604682,0.5755342982011313
158.0,20.963136661407432,0.6701926632622461,0.010858697206458228,11.056545825699374,0.5755322389379377
159.0,20.966317813370186,0.670318625325521,0.010852784633256335,11.056206151469684,0.5755300756632143
160.0,20.969497778521994,0.670444542554545,0.01084687448550787,11.055866605947081,0.5755278406865957
161.0,20.972676556303895,0.6705704149231915,0.010840966763217951,11.055527189162937,0.5755254226182954
162.0,20.975854146157644,0.6706962424053743,0.010835061466395941,11.05518790114853,0.5755229695792682
163.0,20.97903054752573,0.6708220249750497,0.01082915859505527,11.054848741935043,0.5755202215966247
164.0,20.982205759851386,0.6709477626062116,0.010823258149213014,11.05450971155357,0.5755172499655644
165.0,20.985379782578548,0.6710734552728934,0.010817360127388854,11.054170810035098,0.5755140602207391
166.0,20.988552615151896,0.6711991029491721,0.010811464528665224,11.053832037410528,0.5755106286228027
167.0,20.991724257016852,0.6713247056091615,0.010805571353080195,11.053493393710664,0.5755068929447901
168.0,20.994894707619565,0.6714502632270167,0.01079968060067629,11.053154878966211,0.5755027951994756
169.0,20.998063966406914,0.6715757757769379,0.010793792249437212,11.052816493207752,0.5754984622264182
170.0,21.001232032826536,0.6717012432331585,0.010787906307018015,11.052478236465786,0.5754941701150084
171.0,21.00439890632678,0.6718266655699573,0.010782022788063235,11.05214010877074,0.5754899482681421
172.0,21.007564586356754,0.671952042761654,0.010776141692659115,11.051802110152941,0.5754857265980412
173.0,21.010729072366292,0.6720773747826048,0.010770263020894448,11.05146424064263,0.575481869559864
174.0,21.013892363805983,0.6722026616072113,0.010764386772860514,11.05112650026995,0.575478068261008
175.0,21.017054460127152,0.6723279032099142,0.010758512948650337,11.050788889064947,0.575474496465073
176.0,21.02021536078186,0.6724530995651934,0.010752641547510922,11.050451407057569,0.5754711059799097
177.0,21.023375065222922,0.6725782506475735,0.010746772568696788,11.05011405427766,0.5754676051980115
178.0,21.0265335729039,0.6727033564316159,0.010740906012268804,11.04977683075497,0.5754640494464903
179.0,21.02969088327868,0.6728284168919062,0.01073504185266302,11.049439736518039,0.5754603541852322
180.0,21.03284699580232,0.6729534320030887,0.010729180114089526,11.049102771596383,0.5754560192789999
181.0,21.036001909930636,0.6730784017398528,0.010723320797470202,11.048765936019462,0.5754505526997526
182.0,21.0391556251202,0.6732033260769231,0.010717463902987227,11.048429229816637,0.5754486720856063
183.0,21.04230814082832,0.6733282049890702,0.010711609430823896,11.04809265301718,0.5754452144466244
184.0,21.045459456513072,0.6734530384511052,0.010705757381163947,11.047756205650265,0.5754415648828576
185.0,21.048609571633293,0.6735778264378792,0.01069990775419129,11.04741988774497,0.5754383529352248
186.0,21.05175848564855,0.6737025689242838,0.010694060550089491,11.047083699330285,0.5754354667513654
187.0,21.054906198019168,0.6738272658852565,0.0106882157690412,11.046747640435097,0.5754326105084747
188.0,21.058052708206265,0.6739519172957725,0.010682373411227773,11.046411711088206,0.5754297058501073
189.0,21.06119801567166,0.6740765231308469,0.010676533441451672,11.046075911317965,0.5754267049486533
190.0,21.064342119877978,0.6742010833655391,0.010670695883961094,11.045740241152876,0.5754233815183121
191.0,21.067485020288576,0.6743255979749511,0.010664860748602286,11.045404700621441,0.5754202891951653
192.0,21.070626716367585,0.6744500669342246,0.010659028035535681,11.04506928975207,0.5754170901077146
193.0,21.0737672075799,0.6745744902185432,0.010653197744917414,11.044734008573075,0.5754138220869361
194.0,21.07690649339116,0.6746988678031322,0.010647369876898837,11.044398857112679,0.5754117108516424
