k,PSNR,SSIM,mse,Log-Gradient,Angle
0.0,20.446494433668537,0.6497682633704752,0.0,11.111761725817564,0.5698444710840113
1.0,20.44939152842115,0.6498801258554737,0.010053213756999375,11.111445184985499,0.5758838450068088
2.0,20.45272771158892,0.6500116390573405,0.011676747922818613,11.111087936231106,0.5759418127969067
3.0,20.456085977368076,0.6501442022039764,0.011788336198425122,11.110728684981881,0.5759299087577636
4.0,20.459446249203936,0.6502768636959487,0.011801150484761167,11.110369247626448,0.5759291263474222
5.0,20.462806671683076,0.6504095361754006,0.011801834154021975,11.110009801587163,0.5759227022108623
6.0,20.4661669045004,0.6505422040831753,0.011799753620094161,11.109650380738287,0.5759139867039718
7.0,20.46952687452782,0.6506748644472202,0.011796914891040339,11.109290993018986,0.5759044746655579
8.0,20.47288655517459,0.6508075161492058,0.011793761503745148,11.108931641410381,0.5758958467298191
9.0,20.476245937286173,0.6509401588029285,0.011790496242854692,11.108572326844191,0.5758939524857163
10.0,20.4796050154976,0.6510727921966138,0.011787145303779516,11.108213050103327,0.5758920708498533
11.0,20.482963786352727,0.6512054162042737,0.011783736075296786,11.10785381178452,0.5758891766060904
12.0,20.486322247374385,0.6513380307262883,0.011780289503639291,11.107494612290107,0.5758857793696458
13.0,20.48968039642253,0.6514706356809679,0.01177681445777517,11.107135451809036,0.5758829594109184
14.0,20.493038231889614,0.6516032310103466,0.0117733248375207,11.106776330442566,0.5758801793058065
15.0,20.496395752646453,0.6517358166727885,0.011769825052216949,11.106417248301963,0.5758773182166032
16.0,20.499752957742864,0.6518683926242352,0.0117663187870219,11.106058205505885,0.5758748843347137
17.0,20.50310984620261,0.6520009588223998,0.011762810939817497,11.105699202138256,0.5758717522412714
18.0,20.50646641702979,0.6521335152244495,0.011759294353259796,11.105340238299219,0.5758712681656163
19.0,20.509822669310637,0.6522660617907551,0.011755777399711245,11.104981314070452,0.5758695073563881
20.0,20.51317860212851,0.6523985984818016,0.011752260367939398,11.104622429527938,0.5758675786334825
21.0,20.516534214539917,0.6525311252593475,0.011748741778341237,11.104263584759517,0.575865529869919
22.0,20.519889505629653,0.652663642084382,0.011745222735227346,11.10390477984238,0.5758634300431427
23.0,20.523244474510808,0.6527961489182813,0.011741703816079922,11.103546014849982,0.5758613178433671
24.0,20.526599120276234,0.6529286457214202,0.011738184132033232,11.103187289860756,0.5758591336692985
25.0,20.52995344203053,0.6530611324551016,0.01173466419401329,11.102828604942308,0.5758568586227328
26.0,20.533307438852017,0.6531936090782863,0.011731142267612491,11.102469960167298,0.5758546109515986
27.0,20.53666110983267,0.6533260755517548,0.011727618579829385,11.102111355608677,0.575852416815296
28.0,20.54001445408676,0.653458531837137,0.011724093662576218,11.101752791343106,0.5758502175470902
29.0,20.5433674707174,0.6535909778958835,0.011720568253385933,11.10139426743988,0.5758481515769979
30.0,20.546720158840053,0.6537234136896471,0.01171704255343734,11.101035783975062,0.5758461573743106
31.0,20.550072517569614,0.6538558391800745,0.011713517081874467,11.100677341018732,0.5758440927153533
32.0,20.553424546020356,0.653988254328793,0.011709991846052342,11.100318938640811,0.5758419866352474
33.0,20.556776243297172,0.6541206590972711,0.011706466395921074,11.099960576911988,0.5758398148764907
34.0,20.560127608501748,0.6542530534469816,0.011702940151785291,11.099602255897418,0.5758375727453556
35.0,20.563478640746958,0.6543854373395156,0.011699414119427468,11.099243975666692,0.5758352562493542
36.0,20.566829339108985,0.6545178107358999,0.011695887593879642,11.098885736287905,0.575832867802805
37.0,20.570179702625843,0.6546501735966196,0.011692359994865486,11.09852753783178,0.5758304815898452
38.0,20.573529730401567,0.6547825258828579,0.011688831897183866,11.098169380367283,0.5758281450249957
39.0,20.57687942154712,0.6549148675561183,0.011685303794288067,11.097811263963637,0.5758258584570205
40.0,20.580228775173595,0.6550471985779196,0.011681775879676962,11.09745318869007,0.5758236366576374
41.0,20.58357779039136,0.6551795189097589,0.011678248155005365,11.097095154615792,0.5758213986424957
42.0,20.586926466310086,0.6553118285131155,0.011674720621639304,11.096737161809989,0.5758191796409647
43.0,20.59027480203872,0.6554441273494376,0.01167119328069324,11.096379210341839,0.5758169270363775
44.0,20.59362279668551,0.6555764153801575,0.011667666133061675,11.096021300280505,0.5758146046961669
45.0,20.596970449357936,0.6557086925666772,0.011664139179445915,11.095663431695142,0.5758121714531595
46.0,20.60031775916279,0.6558409588703812,0.011660612420376658,11.095305604654897,0.575809538781569
47.0,20.603664725206134,0.6559732142526203,0.011657085856233084,11.094947819228913,0.5758069345973845
48.0,20.607011346593282,0.6561054586747328,0.011653559422373469,11.094590075486439,0.575804469258555
49.0,20.61035762242883,0.6562376920980273,0.01165003268749554,11.094232373495919,0.5758034245733071
50.0,20.61370355181664,0.6563699144837892,0.011646506023211668,11.093874713325226,0.5758000921678513
51.0,20.61704913385983,0.6565021257932767,0.011642979365704579,11.09351709504399,0.5757973668344963
52.0,20.62039436766081,0.6566343259877298,0.011639452767265865,11.093159518719206,0.5757946118645753
53.0,20.623739252321233,0.6567665150283588,0.011635926194815526,11.092801984419921,0.5757918113800237
54.0,20.62708378694203,0.6568986928763523,0.01163239976410693,11.092444492215245,0.5757892183107088
55.0,20.6304279706234,0.6570308594928771,0.011628873512784665,11.092087042174306,0.5757868521062267
56.0,20.6337718024648,0.6571630148390697,0.011625347441530999,11.091729634366237,0.5757844884374156
57.0,20.637115281563165,0.657295158876022,0.011621821424940587,11.091372268860002,0.5757820993734457
58.0,20.64045840701574,0.6574272915648138,0.011618295531138427,11.091014945724652,0.5757796523670141
59.0,20.643801177919915,0.6575594128665148,0.01161476982017379,11.090657665029324,0.5757770423535099
60.0,20.647143593372338,0.6576915227421721,0.011611244292722771,11.09030042684316,0.5757742000971556
61.0,20.650485652468923,0.657823621152806,0.01160771894942126,11.08994323123531,0.5757714069547638
62.0,20.653827354304855,0.6579557080594158,0.011604193790868508,11.089586078274927,0.5757697217606831
63.0,20.657168697974587,0.658087783422975,0.011600668817629799,11.089228968031177,0.5757681871431697
64.0,20.66050968257183,0.6582198472044318,0.011597144030239148,11.08887190057323,0.575766342447538
65.0,20.663850307189577,0.6583518993647127,0.011593619429201469,11.088514875970267,0.5757656342131225
66.0,20.667190570920067,0.6584839398647196,0.011590095014994495,11.088157894291472,0.5757645097491142
67.0,20.670530472854832,0.658615968665329,0.011586570788070318,11.08780095560604,0.5757623903482992
68.0,20.67387001208465,0.6587479857273932,0.011583046631784735,11.087444059983977,0.5757598833856391
69.0,20.677209187699578,0.6588799910117471,0.011579522639321986,11.087087207494642,0.5757569207081504
70.0,20.68054799878894,0.659011984479188,0.011575998836765617,11.086730398207234,0.5757539161509436
71.0,20.683886444441328,0.6591439660905037,0.011572475224587353,11.086373632190954,0.5757517025436126
72.0,20.687224523744597,0.659275935806452,0.011568951803236726,11.086016909515017,0.5757497963430662
73.0,20.690562235785876,0.659407893587762,0.011565428573142439,11.085660230248642,0.575747670933863
74.0,20.693899579651568,0.6595398393951505,0.011561905449207327,11.085303594461063,0.5757453913298869
75.0,20.69723655442626,0.6596717731892449,0.011558382471823702,11.08494700222087,0.5757429278449852
76.0,20.700573159193226,0.6598036949306226,0.01155485964226742,11.084590453596297,0.5757398800457993
77.0,20.703909393036724,0.6599356045799231,0.01155133700640844,11.084233948656601,0.5757366448989879
78.0,20.707245255040284,0.6600675020977688,0.011547814564686478,11.083877487471048,0.575735728574272
79.0,20.710580744286716,0.660199387444749,0.011544292317523377,11.083521070108917,0.5757341837839777
80.0,20.713915859858112,0.6603312605814359,0.011540770265323425,11.083164696639491,0.5757320652596956
81.0,20.717250600835825,0.6604631214683759,0.011537248408473227,11.082808367132069,0.5757296354979444
82.0,20.720584966300496,0.6605949700660949,0.011533726747342104,11.082452081655955,0.5757270902675798
83.0,20.72391895533205,0.6607268063350917,0.011530205282282107,11.082095840280463,0.5757247591147377
84.0,20.727252567009668,0.660858630235842,0.011526684013628144,11.08173964307492,0.5757240220189095
85.0,20.730585800411827,0.6609904417287972,0.011523162941698263,11.081383490108657,0.5757225495869426
86.0,20.733918654616282,0.6611222407743932,0.011519642066793685,11.081027381451019,0.5757209127603046
87.0,20.737251128700066,0.6612540273330314,0.011516121389198936,11.080671317171358,0.575719802417559
88.0,20.740583221739485,0.6613858013650981,0.011512600909182134,11.080315297339036,0.575716908126173
89.0,20.743914932810128,0.6615175628309525,0.011509080626994914,11.079959322023424,0.5757143044488803
90.0,20.74724626098687,0.6616493116909338,0.011505560542872743,11.079603391293901,0.5757127527586491
91.0,20.750577205343873,0.6617810479053516,0.011502040657034928,11.079247505219861,0.5757114400636993
92.0,20.753907764954565,0.6619127714344997,0.011498520969684846,11.078891663870698,0.5757100071556475
93.0,20.757237938891674,0.6620444822386437,0.011495001481010033,11.078535867315821,0.5757084065065526
94.0,20.7605677262272,0.6621761802780312,0.011491482191182267,11.078180115624649,0.5757067139306451
95.0,20.76389712603244,0.662307865512883,0.011487963100357884,11.077824408866606,0.5757049417614742
96.0,20.76722613737796,0.6624395379033962,0.011484444208677697,11.077468747111126,0.5757029850014476
97.0,20.770554759333617,0.662571197409746,0.011480925516267284,11.077113130427653,0.5757007653979468
98.0,20.773882990968573,0.6627028439920885,0.011477407023237206,11.07675755888564,0.5756984211278202
99.0,20.77721083135124,0.662834477610552,0.011473888729683007,11.07640203255455,0.5756960604038834
100.0,20.78053827954936,0.6629660982252412,0.011470370635685522,11.076046551503845,0.5756936873635988
101.0,20.783865334629933,0.6630977057962433,0.011466852740605618,11.07569111580301,0.5756919499886471
102.0,20.787191995659256,0.6632293002836201,0.01146333504238278,11.075335725521525,0.5756901457791412
103.0,20.79051826170292,0.6633608816474074,0.011459817541152486,11.074980380728881,0.5756881907355365
104.0,20.793844131825807,0.6634924498476242,0.011456300237039172,11.074625081494577,0.5756861738838642
105.0,20.797169605092087,0.6636240048442638,0.01145278313015632,11.074269827888124,0.5756843298098488
106.0,20.800494680565215,0.6637555465972936,0.011449266220606455,11.073914619979034,0.5756819673357925
107.0,20.803819357307965,0.6638870750666677,0.01144574950848139,11.07355945783683,0.5756801737101124
108.0,20.807143634382367,0.6640185902123091,0.011442232993862139,11.073204341531044,0.5756788450073232
109.0,20.81046751084977,0.6641500919941191,0.011438716676819123,11.072849271131215,0.5756769776769347
110.0,20.813790985770826,0.6642815803719816,0.011435200557412222,11.072494246706887,0.5756743531890735
111.0,20.817114058205455,0.6644130553057549,0.011431684635690885,11.072139268327616,0.5756710996205526
112.0,20.820436727212893,0.6645445167552725,0.011428168911694271,11.071784336062962,0.5756670714156863
113.0,20.82375899185167,0.6646759646803498,0.01142465338545137,11.071429449982494,0.5756620719958904
114.0,20.827080851179616,0.664807399040781,0.011421138056980999,11.071074610155788,0.5756572895868457
115.0,20.83040230425385,0.6649388197963297,0.011417622926292169,11.070719816652426,0.575653868807105
116.0,20.833723350130807,0.6650702269067491,0.011414107993383988,11.070365069542,0.5756507870360047
117.0,20.837043987866206,0.6652016203317589,0.011410593258245921,11.070010368894105,0.5756479862884774
118.0,20.84036421651508,0.6653330000310662,0.01140707872085794,11.069655714778346,0.5756451154699498
119.0,20.843684035131762,0.6654643659643497,0.011403564381190627,11.069301107264334,0.575642222799071
120.0,20.847003442769882,0.6655957180912678,0.01140005023920533,11.068946546421687,0.5756392954722961
121.0,20.850322438482376,0.6657270563714607,0.011396536294854378,11.068592032320028,0.5756361832959171
122.0,20.853641021321497,0.6658583807645361,0.011393022548081196,11.068237565028992,0.5756329579436411
123.0,20.856959190338777,0.6659896912300938,0.011389508998820526,11.067883144618213,0.5756295504349367
124.0,20.86027694458508,0.6661209877277016,0.011385995646998515,11.067528771157336,0.5756259009769576
125.0,20.863594283114324,0.6662522702177388,0.011382482493250797,11.06717444471415,0.5756222509103103
126.0,20.866911204976226,0.6663835386597871,0.011378969533305082,11.066820165358195,0.5756183519849452
127.0,20.870227709219584,0.6665147930133561,0.01137545676698984,11.066465933159147,0.5756141545446258
128.0,20.87354379489249,0.6666460332379316,0.011371944194242329,11.06611174818669,0.5756098617876115
129.0,20.876859461041523,0.6667772592929561,0.011368431763497331,11.065757610509829,0.5756052879664709
130.0,20.8801747067132,0.66690847113787,0.011364919510836798,11.065403520198068,0.5756012545357284
131.0,20.883489530953597,0.6670396687320972,0.01136140745093036,11.065049477321116,0.5755974496907953
132.0,20.886803932808114,0.6671708520350336,0.011357895583772834,11.064695481948691,0.5755942220447138
133.0,20.890117911321457,0.6673020210060617,0.011354383909354712,11.06434153415051,0.5755928159094423
134.0,20.893431465537645,0.6674331756045385,0.011350872427662346,11.0639876339963,0.5755915128822018
135.0,20.89674459450002,0.6675643157897989,0.011347361138677719,11.063633781555794,0.5755900237418131
136.0,20.90005729725124,0.6676954415211614,0.011343850042378699,11.063279976898729,0.5755882877217078
137.0,20.90336957283327,0.6678265527579154,0.011340339138739096,11.062926220094846,0.5755865105998018
138.0,20.906681420287402,0.667957649459339,0.011336828427728674,11.062572511213897,0.5755844672135347
139.0,20.909992838654254,0.6680887315846803,0.011333317909313351,11.06221885032563,0.5755823089264759
140.0,20.91330382697375,0.6682197990931691,0.01132980758345522,11.061865237499806,0.575580131010811
141.0,20.91661438428514,0.6683508519440156,0.011326297446054198,11.06151167280612,0.5755778495508165
142.0,20.919924509627,0.668481890096409,0.011322787450734183,11.06115815631331,0.5755758062656297
143.0,20.923234202037214,0.6686129135095155,0.011319277618354807,11.060804688090256,0.5755734802826302
144.0,20.926543460553,0.6687439221424826,0.0113157679765318,11.060451268206748,0.5755698512255388
145.0,20.92985228421015,0.6688749159544175,0.01131225847904801,11.060097896731312,0.5755660622071943
146.0,20.933160672044536,0.6690058949044261,0.011308749171345724,11.05974457373374,0.5755625012972266
147.0,20.936468623091386,0.6691368589515913,0.011305240053422521,11.059391299283847,0.5755590894160533
148.0,20.939776136385216,0.669267808054976,0.011301731087977359,11.059038073450578,0.575555581323535
149.0,20.9430832109599,0.6693987421736242,0.011298222304121846,11.058684896303658,0.575551949338572
150.0,20.94638984584863,0.6695296612665554,0.01129471370383317,11.058331767912895,0.5755481390956763
151.0,20.94969604008391,0.6696605652927697,0.011291205286565405,11.057978688348106,0.5755442418941116
152.0,20.953001792697606,0.6697914542112504,0.011287697052600371,11.057625657679111,0.5755404658040694
153.0,20.956307102720896,0.6699223279809567,0.01128418899599179,11.057272675975648,0.5755375851568489
154.0,20.959611969184287,0.6700531865608275,0.011280681089587984,11.05691974330711,0.5755353413728479
155.0,20.96291639111762,0.6701840299097824,0.011277173366968192,11.056566859743334,0.575533243094703
156.0,20.966220367550093,0.6703148579867196,0.011273665828468601,11.056214025354155,0.575531047428207
157.0,20.9695238975102,0.6704456707505209,0.011270158474430893,11.055861240209417,0.5755287469634492
158.0,20.9728269800258,0.6705764681600441,0.011266651305201705,11.055508504378968,0.5755262618334186
159.0,20.976129614124062,0.670707250174129,0.011263144321132396,11.055155817932656,0.5755237169963638
160.0,20.979431798831513,0.6708380167515906,0.011259637522578459,11.054803180940338,0.5755208681530057
161.0,20.98273353317401,0.6709687678512338,0.011256130909899366,11.054450593471868,0.575517773278808
162.0,20.986034816176744,0.6710995034318322,0.01125262448292984,11.054098055597109,0.5755143483166967
163.0,20.989335646864234,0.6712302234521464,0.011249118240037832,11.05374556738592,0.5755106201529573
164.0,20.992636024260367,0.6713609278709182,0.011245612181603042,11.053393128908166,0.5755066368825977
165.0,20.995935947388343,0.6714916166468652,0.011242106308009885,11.053040740233708,0.575502294341162
166.0,20.99923541527071,0.6716222897386843,0.01123860061964718,11.05268840143242,0.5754978080108109
167.0,21.002534426929365,0.6717529471050621,0.01123509509721025,11.05233611257414,0.5754934376900814
168.0,21.005832981385538,0.6718835887046567,0.01123158974413367,11.051983873728723,0.5754891515943864
169.0,21.009131077659802,0.6720142144961074,0.011228084577535566,11.051631684966045,0.5754850014146496
170.0,21.012428714772085,0.6721448244380381,0.011224579597848333,11.051279546355985,0.5754811275562537
171.0,21.01572589174165,0.672275418489047,0.011221074805507035,11.05092745796843,0.575477196676266
172.0,21.019022607587104,0.6724059966077224,0.011217570200948941,11.050575419873264,0.5754736968052904
173.0,21.022318861326408,0.6725365587526264,0.011214065784053956,11.050223432140369,0.5754701418391274
174.0,21.02561465197686,0.6726671048823025,0.011210561554088717,11.049871494839623,0.575466570911595
175.0,21.028909978555106,0.672797634955275,0.011207057511524027,11.049519608040903,0.5754628341717319
176.0,21.03220484007712,0.6729281489300506,0.011203553655059125,11.049167771814016,0.5754583620718389
177.0,21.035499235557822,0.6730586467650949,0.01120004996210862,11.048815986227716,0.5754522468621638
178.0,21.03879316401191,0.6731891284188812,0.011196546456971056,11.048464251351877,0.5754502906034599
179.0,21.042086624453454,0.6733195938498527,0.011193043140176159,11.048112567256377,0.5754465779074606
180.0,21.045379615895875,0.6734500430164442,0.011189540012255153,11.047760934011093,0.5754425725457243
181.0,21.04867213735193,0.6735804758770652,0.011186037073740388,11.047409351685905,0.5754387012330859
182.0,21.051964187833736,0.6737108923901108,0.011182534325164634,11.047057820350698,0.5754350915517606
183.0,21.055255766352765,0.6738412925139549,0.011179031767060761,11.046706340075355,0.575431471197882
184.0,21.05854687191985,0.6739716762069504,0.011175529399961227,11.04635491092976,0.5754278890924936
185.0,21.061837503545163,0.674102043427436,0.011172027224397505,11.046003532983802,0.5754244213792766
186.0,21.065127660238254,0.6742323941337335,0.011168525225151606,11.045652206307206,0.5754208946715055
187.0,21.068417341008,0.6743627282841392,0.011165023389932843,11.045300930969564,0.5754174885274855
188.0,21.07170654486266,0.6744930458369343,0.011161521746249079,11.044949707040757,0.575413921479488
189.0,21.074995270809843,0.6746233467503829,0.011158020294611257,11.044598534590666,0.5754113727569785
190.0,21.07828351785652,0.6747536309827318,0.011154519035525699,11.044247413689172,0.5754095019624633
191.0,21.081571285009005,0.6748838984922058,0.011151017969493872,11.043896344406164,0.5754076648819221
192.0,21.084858571273003,0.6750141492370129,0.011147517097011983,11.043545326811529,0.5754053709161159
193.0,21.088145375653546,0.6751443831753448,0.011144016418570674,11.043194360975154,0.5754028694862215
194.0,21.09143169715507,0.6752746002653719,0.011140515923311056,11.042843446966856,0.5754001384237181
