k,PSNR,SSIM,mse,Log-Gradient,Angle
0.0,20.203869201506915,0.39727442445618505,0.0,10.94693289378494,0.599031209302794
1.0,20.20701506404731,0.3974215897444365,0.010272011265045577,10.946508970080915,0.5993842815458296
2.0,20.210700722298512,0.3975955095428549,0.012210494728546238,10.946015373520702,0.5993931798845483
3.0,20.214409704466934,0.39777066891663404,0.012319503194574456,10.945518784270119,0.5994020709444849
4.0,20.218120287822316,0.3979459568363197,0.012326884072764877,10.945021955731434,0.5994117876915157
5.0,20.22183079399432,0.3981212863710497,0.012324013514330703,10.944525109831497,0.5994226714367422
6.0,20.225541001447876,0.39829664596947406,0.01231938102949772,10.944028279044105,0.5994325312700438
7.0,20.229250867352984,0.39847203329819153,0.012314292938720571,10.94353147081585,0.5994420819129008
8.0,20.23296037900218,0.3986474476656742,0.012309016513619247,10.943034687869531,0.5994514873118176
9.0,20.2366695314174,0.39882288879734834,0.01230366052898762,10.942537931417158,0.5994609442592959
10.0,20.24037832298316,0.3989983565777853,0.012298272991739646,10.942041201977883,0.5994702942894702
11.0,20.24408675246157,0.39917385090615637,0.01229286103154595,10.941544499891503,0.5994795828047221
12.0,20.247794819211062,0.39934937170868084,0.012287437238295625,10.94104782542303,0.5994888090080358
13.0,20.25150252250683,0.3995249188995578,0.012282006184138885,10.940551178767642,0.5994980791602929
14.0,20.25520986187384,0.39970049241727407,0.012276568189609321,10.94005456007922,0.5995073754741994
15.0,20.258916836799465,0.3998760922004721,0.012271119955325536,10.939557969539218,0.5995166737486487
16.0,20.26262344681356,0.40005171818892443,0.012265668433164248,10.939061407285923,0.599525950229779
17.0,20.26632969146204,0.40022737032298367,0.01226021745900148,10.938564873428371,0.5995352336760648
18.0,20.270035570294034,0.40040304854326464,0.012254763014444734,10.938068368087391,0.5995444894358656
19.0,20.273741082861005,0.40057875279057126,0.012249309132752384,10.937571891346952,0.5995537130387862
20.0,20.277446228716002,0.4007544830058227,0.01224385684431441,10.93707544329169,0.5995629179658722
21.0,20.281151007413275,0.40093023913001796,0.01223840305603426,10.936579024020048,0.5995721927697245
22.0,20.284855418507956,0.4011060211041981,0.01223294874116684,10.936082633618264,0.5995814013115481
23.0,20.288559461555778,0.40128182886942826,0.012227495592636127,10.93558627216653,0.5995906621487265
24.0,20.292263136112958,0.4014576623667708,0.012222044077288385,10.935089939743792,0.5995999044656838
25.0,20.29596644173601,0.40163352153728593,0.01221659324487612,10.934593636423562,0.5996090923089973
26.0,20.299669377981697,0.40180940632201473,0.012211142612805969,10.934097362287686,0.599618362742163
27.0,20.30337194440698,0.40198531666197074,0.01220569165597469,10.933601117428028,0.599627767976589
28.0,20.307074140568947,0.4021612524981466,0.012200241923839953,10.93310490192401,0.5996372044444179
29.0,20.310775966024764,0.40233721377149106,0.012194793784798149,10.932608715852425,0.599646626954857
30.0,20.314477420331663,0.40251320042292843,0.012189346189073837,10.932112559295883,0.5996561250301866
31.0,20.318178503046923,0.4026892123933346,0.012183899804001194,10.93161643233314,0.5996656677706363
32.0,20.32187921372782,0.40286524962355585,0.012178454990650029,10.931120335040395,0.5996752277538546
33.0,20.325579551931654,0.40304131205438504,0.012173011474521277,10.930624267496057,0.5996848084693592
34.0,20.329279517215703,0.40321739962658304,0.01216756939545324,10.930128229776479,0.5996943366808953
35.0,20.332979109137245,0.4033935122808702,0.01216212828122755,10.929632221957148,0.5997038822783224
36.0,20.336678327253523,0.4035696499579096,0.01215668742025425,10.929136244109786,0.5997134283988439
37.0,20.34037717112174,0.4037458125983277,0.012151247441570681,10.9286402963088,0.5997229744407105
38.0,20.344075640299085,0.4039220001427124,0.012145808990233311,10.928144378629959,0.599732532075934
39.0,20.34777373434271,0.4040982125316002,0.01214037206692346,10.927648491149034,0.5997420565739647
40.0,20.351471452809715,0.40427444970548027,0.012134936672106158,10.927152633941791,0.5997515707818896
41.0,20.355168795257164,0.4044507116048044,0.012129502806064936,10.926656807084003,0.5997611978255333
42.0,20.35886576124211,0.4046269981699733,0.012124070468931436,10.92616101065145,0.5997708228370022
43.0,20.362562350321525,0.4048033093413439,0.012118639660710173,10.925665244719927,0.5997803728182258
44.0,20.366258562052376,0.4049796450592283,0.012113210381299092,10.925169509365237,0.5997899163657027
45.0,20.369954395991563,0.4051560052638979,0.012107782630506636,10.924673804663204,0.5997994901987741
46.0,20.37364985169595,0.4053323898955668,0.01210235640806594,10.92417813068967,0.5998090532121287
47.0,20.377344928722376,0.4055087988944166,0.012096931572164566,10.923682487518946,0.599818676895285
48.0,20.3810396266276,0.40568523220057795,0.012091508193245873,10.923186875226166,0.5998282953566079
49.0,20.38473394496837,0.4058616897541347,0.012086086338545418,10.922691293887242,0.599837933631168
50.0,20.38842788330136,0.4060381714951295,0.01208066600778137,10.922195743578103,0.5998475143445876
51.0,20.39212144118323,0.4062146773635555,0.012075247200641483,10.921700224374703,0.5998570611850087
52.0,20.395814618170576,0.4063912072993648,0.012069829907840817,10.921204736352877,0.5998664623947835
53.0,20.39950741381997,0.40656776124246435,0.012064413982058353,10.920709279586125,0.5998756760651025
54.0,20.40319982768792,0.4067443391327134,0.012058999576432741,10.920213854150493,0.5998853137445296
55.0,20.406891859330905,0.40692094090992664,0.012053586690717322,10.919718460122052,0.5998948823402388
56.0,20.410583508305372,0.4070975665138781,0.012048175324656171,10.919223097576898,0.5999044940718411
57.0,20.414274774167698,0.4072742158842951,0.012042765477986809,10.91872776659116,0.5999149998404457
58.0,20.417965656474266,0.4074508889608539,0.012037357001601162,10.918232467241895,0.5999250736061514
59.0,20.421656154781363,0.40762758568319984,0.012031950003085812,10.917737199605511,0.5999356117060608
60.0,20.4253462686453,0.4078043059909214,0.012026544524265326,10.917241963758187,0.5999469049826108
61.0,20.4290359976223,0.4079810498235655,0.01202114056502163,10.916746759776128,0.5999572297233536
62.0,20.43272534126858,0.4081578171206426,0.012015738125237685,10.916251587735571,0.599966797126087
63.0,20.436414299140296,0.4083346078216052,0.012010337204798835,10.915756447712777,0.5999764745401912
64.0,20.44010287079358,0.40851142186588046,0.0120049378035938,10.915261339784037,0.5999864730715118
65.0,20.443791055784523,0.40868825919283047,0.01199953992151579,10.91476626402567,0.5999961549362582
66.0,20.447478853669185,0.4088651197417906,0.011994143558463273,10.914271220514028,0.6000055896829527
67.0,20.45116626400358,0.4090420034520454,0.011988748714340646,10.913776209325482,0.600014899560246
68.0,20.454853286343702,0.40921891026283125,0.011983355389059105,10.913281230536436,0.6000240954281806
69.0,20.45853992024549,0.40939584011335034,0.011977963582536928,10.912786284223326,0.6000329391610975
70.0,20.46222616526486,0.4095727929427566,0.011972573294700072,10.91229137046261,0.6000412740487974
71.0,20.46591202095769,0.4097497686901613,0.011967184525482464,10.91179648933078,0.6000520090873054
72.0,20.469597486879827,0.40992676729462696,0.011961797274826508,10.911301640904352,0.6000620757854599
73.0,20.473282562587087,0.4101037886951813,0.011956411542683213,10.91080682525987,0.6000718581937443
74.0,20.476967247635258,0.41028083283080724,0.011951027329012324,10.910312042473912,0.6000814586757305
75.0,20.480651541580066,0.4104578996404482,0.0119456446337828,10.909817292623076,0.6000907888056768
76.0,20.484335443977248,0.41063498906298596,0.011940263456972657,10.909322575783994,0.6000998851428957
77.0,20.488018954382476,0.41081210103728383,0.011934883798569282,10.908827892033326,0.600108758331457
78.0,20.491702072351416,0.4109892355021482,0.011929505658569392,10.908333241447753,0.6001174902895282
79.0,20.495384797439677,0.41116639239634445,0.011924129036979163,10.907838624103993,0.6001259093347283
80.0,20.499067129202864,0.4113435716586011,0.011918753933814094,10.907344040078785,0.6001350085175133
81.0,20.50274906719654,0.411520773227602,0.011913380349099242,10.9068494894489,0.600144911979218
82.0,20.50643061097623,0.4116979970419834,0.011908008248967818,10.906354972291423,0.6001547861524896
83.0,20.51011176009745,0.41187524304034556,0.011902637642208018,10.905860488683386,0.6001651163493568
84.0,20.513792514115675,0.412052511161239,0.01189726855763062,10.905366038701604,0.600175362653388
85.0,20.51747287258636,0.41222980134318554,0.011891900995232924,10.904871622422919,0.600185528798256
86.0,20.52115283506492,0.41240711352465126,0.011886534955017264,10.9043772399242,0.6001961767835389
87.0,20.524832401106764,0.4125844476440716,0.011881170404015354,10.903882891282723,0.6002069932718074
88.0,20.52851157026725,0.4127618036398295,0.011875807375760375,10.903388576575411,0.6002177716615923
89.0,20.53219034210173,0.4129391814502748,0.01187044587329447,10.902894295879173,0.6002284718072762
90.0,20.53586871616553,0.4131165810137114,0.01186508589655559,10.902400049270959,0.6002391795214513
91.0,20.539546692013943,0.4132940022684071,0.011859727445482611,10.901905836827735,0.6002497291180297
92.0,20.54322426920224,0.4134714451525801,0.01185437049841443,10.901411658626676,0.6002599760909672
93.0,20.546901447285663,0.41364890960441486,0.011849015032529144,10.90091751474515,0.6002700749740449
94.0,20.550578225819443,0.41382639556204853,0.01184366109185004,10.900423405260206,0.6002800040496319
95.0,20.554254604358782,0.4140039029635881,0.011838308676368934,10.899929330248932,0.6002900201731467
96.0,20.557930582458866,0.4141814317470815,0.011832957786079295,10.899435289788435,0.6003000273356759
97.0,20.561606159674852,0.41435898185055325,0.011827608420976021,10.89894128395586,0.6003098898722664
98.0,20.565281335561878,0.41453655321198024,0.011822260581055774,10.898447312828374,0.6003201458598167
99.0,20.568956109675046,0.41471414576929316,0.011816914265589873,10.897953376483184,0.6003304106277825
100.0,20.572630481569472,0.4148917594603975,0.011811569472936842,10.897459474997541,0.6003406646496772
101.0,20.576304450800222,0.4150693942231405,0.011806226203216032,10.896965608448726,0.6003510855835025
102.0,20.57997801692236,0.41524704999533996,0.011800884456551187,10.896471776914046,0.6003616720638921
103.0,20.583651179490914,0.4154247267147792,0.011795544233069975,10.895977980470832,0.6003722840766433
104.0,20.58732393806092,0.4156024243191803,0.01179020553290429,10.895484219196446,0.6003826413031691
105.0,20.59099629218736,0.41578014274624553,0.01178486835618987,10.894990493168274,0.6003926326644818
106.0,20.594668241425236,0.4159578819336292,0.011779532703066347,10.89449680246373,0.6004014483648029
107.0,20.598339785329507,0.41613564181894613,0.011774198573677074,10.894003147160248,0.6004110196441829
108.0,20.602010923455133,0.41631342233977664,0.011768865968169092,10.893509527335297,0.6004207419041855
109.0,20.60568165535703,0.4164912234336504,0.011763534886651222,10.893015943066365,0.6004296453001319
110.0,20.60935198059014,0.41666904503806973,0.011758205328532268,10.892522394430973,0.6004387463756814
111.0,20.61302189870936,0.4168468870904909,0.011752877294075826,10.892028881506665,0.6004478636628195
112.0,20.616691409269574,0.41702474952832785,0.011747550783547162,10.891535404371009,0.6004569501353166
113.0,20.620360511825666,0.41720263228896776,0.01174222579721319,10.891041963101598,0.6004658771750405
114.0,20.624029205932505,0.41738053530974933,0.011736902335341831,10.890548557776048,0.6004745981839194
115.0,20.62769749114493,0.4175584585279635,0.01173158039820188,10.890055188472004,0.600483109932307
116.0,20.631365367017782,0.4177364018808898,0.011726259986062486,10.889561855267129,0.6004916212233745
117.0,20.635032833105882,0.41791436530573894,0.011720941099192916,10.889068558239114,0.6005006811057965
118.0,20.63869988896405,0.4180923487397028,0.011715623737862193,10.888575297465671,0.600510159256168
119.0,20.6423665341471,0.4182703521199273,0.011710307902338698,10.88808207302454,0.6005204952174305
120.0,20.646032768209803,0.41844837538351753,0.011704993592889918,10.887588884993479,0.6005318653253456
121.0,20.64969859070695,0.4186264184675474,0.011699680809782146,10.887095733450273,0.6005430338425765
122.0,20.65336400119332,0.41880448130905096,0.01169436955327996,10.88660261847273,0.600554144420529
123.0,20.657028999223673,0.418982563845018,0.011689059823646169,10.886109540138685,0.6005652007586372
124.0,20.660693584352764,0.41916066601240437,0.011683751618746987,10.885616498525971,0.6005762503249024
125.0,20.66435775613534,0.41933878774813205,0.01167844493564453,10.885123493712452,0.600587062350601
126.0,20.66802151412614,0.4195169289890761,0.011673139774347184,10.884630525776016,0.6005974746553133
127.0,20.6716848578799,0.4196950896720884,0.011667836135244882,10.88413759479457,0.6006075181435736
128.0,20.675347786951342,0.4198732697339642,0.011662534018730068,10.883644700846046,0.6006175572507891
129.0,20.67901030089519,0.42005146911148145,0.011657233425197144,10.883151844008399,0.6006273538185228
130.0,20.68267239926616,0.4202296877413631,0.011651934355041955,10.8826590243596,0.600638267939258
131.0,20.686334081618956,0.42040792556030865,0.011646636808661457,10.882166241977654,0.6006482079442133
132.0,20.689995347508287,0.4205861825049671,0.011641340786453165,10.881673496940573,0.6006581140038988
133.0,20.693656196488853,0.42076445851196914,0.011636046288814653,10.881180789326404,0.6006678453196445
134.0,20.69731662811535,0.42094275351788585,0.011630753316143114,10.880688119213207,0.6006775869672382
135.0,20.700976641942475,0.421121067459272,0.011625461868834936,10.880195486679069,0.6006872673775443
136.0,20.704636237524923,0.42129940027263374,0.011620171940717417,10.879702891802054,0.6006969594222041
137.0,20.708295414417375,0.4214777518944399,0.01161488353610075,10.879210334660263,0.6007071523814419
138.0,20.711954172174526,0.42165612226113547,0.011609596656982843,10.87871781533183,0.6007176971047851
139.0,20.71561251035106,0.421834511309118,0.01160431130374348,10.87822533389491,0.6007286893857494
140.0,20.719270428501666,0.42201291897474486,0.01159902747676304,10.877732890427678,0.6007389139662002
141.0,20.72292792618103,0.42219134519435375,0.011593745176421715,10.877240485008322,0.6007486869696067
142.0,20.72658500294384,0.4223697899042338,0.011588464395009894,10.87674811771505,0.6007584712675461
143.0,20.730241658344784,0.422548253040633,0.011583185131354324,10.87625578862608,0.6007682134777986
144.0,20.733897891938543,0.4227267345397833,0.011577907385862429,10.875763497819655,0.600778636856889
145.0,20.737553703279833,0.42290523433786326,0.011572631158946823,10.87527124537403,0.6007892574785856
146.0,20.741209091923317,0.423083752371026,0.011567356451024845,10.87477903136748,0.6007998714622856
147.0,20.74486405742371,0.42326228857538145,0.011562083262517859,10.874286855878294,0.6008103120201799
148.0,20.748518599335718,0.4234408428870096,0.011556811593850485,10.873794718984783,0.6008197371771319
149.0,20.752172717214027,0.42361941524195484,0.011551541445449953,10.873302620765275,0.6008287136514567
150.0,20.755826410613366,0.4237980055762287,0.011546272817745238,10.87281056129811,0.6008381672131179
151.0,20.75947967908844,0.4239766138257968,0.011541005711166601,10.872318540661649,0.600847810764211
152.0,20.763132522193963,0.4241552399266079,0.01153574012314352,10.871826558934263,0.6008573249327929
153.0,20.766784939484673,0.4243338838145578,0.011530476053754901,10.871334616194334,0.6008668257754336
154.0,20.770436930515306,0.42451254542552147,0.011525213503533338,10.870842712520266,0.600875997687825
155.0,20.774088494840587,0.42469122469532766,0.01151995247301393,10.870350847990478,0.600885142886474
156.0,20.777739632015276,0.4248699215597835,0.011514692962733504,10.869859022683404,0.6008944005761816
157.0,20.78139034159412,0.42504863595465353,0.011509434973230013,10.8693672366775,0.6009036491604242
158.0,20.7850406231319,0.4252273678156691,0.01150417850504163,10.868875490051236,0.6009128415327609
159.0,20.788690476183373,0.42540611707852705,0.011498923558706232,10.868383782883097,0.6009222808834408
160.0,20.792339900303332,0.4255848836788953,0.01149367013476042,10.86789211525159,0.6009317197838338
161.0,20.79598889504657,0.4257636675524024,0.011488418202817477,10.867400487235184,0.6009412182683594
162.0,20.799637459967894,0.4259424686346444,0.011483167783797864,10.866908898912396,0.6009510537786285
163.0,20.80328559462213,0.42612128686118583,0.01147791888726708,10.866417350361772,0.6009607894745072
164.0,20.80693329856409,0.42630012216756125,0.011472671492405486,10.865925841661802,0.6009702722468113
165.0,20.810580571348627,0.4264789744892597,0.011467425603547897,10.865434372891011,0.6009794452233311
166.0,20.81422741253059,0.4266578437617449,0.011462181237596618,10.864942944127975,0.6009882460115851
167.0,20.817873821664868,0.4268367299204565,0.011456938367731005,10.864451555451728,0.6009970790213902
168.0,20.821519798306323,0.4270156329007837,0.011451697002749244,10.863960206940812,0.601005941373491
169.0,20.82516534200987,0.4271945526380905,0.011446457142133342,10.863468898673586,0.601014651954822
170.0,20.828810452330423,0.42737348906771516,0.011441218805399157,10.862977630728654,0.6010233386064324
171.0,20.832455128822907,0.4275524421249524,0.01143598199067698,10.862486403184642,0.6010322529481783
172.0,20.836099371042266,0.42773141174506746,0.011430746696664702,10.861995216120203,0.6010416426046746
173.0,20.839743178543472,0.42791039786329993,0.011425512923271082,10.861504069614003,0.6010519707632794
174.0,20.843386550881505,0.4280894004148494,0.011420280670597383,10.861012963744722,0.6010623012137243
175.0,20.847029487611366,0.42826841933488335,0.01141504993935127,10.86052189859106,0.6010741982137332
176.0,20.85067198828806,0.42844745455854505,0.01140982073023611,10.86003087423173,0.6010845251640385
177.0,20.85431405246664,0.4286265060209407,0.011404593043950452,10.859539890745468,0.6010937178426513
178.0,20.857955679702158,0.4288055736571396,0.011399366881187608,10.859048948211019,0.6011026272520449
179.0,20.861596869549683,0.42898465740218855,0.011394142240963249,10.858558046707179,0.6011114973850452
180.0,20.865237621564322,0.4291637571910974,0.01138891912269999,10.858067186312777,0.6011202691228893
181.0,20.8688779353012,0.42934287295884926,0.011383697526924285,10.85757636710666,0.6011294622929089
182.0,20.872517810315443,0.4295220046403813,0.011378477422729245,10.857085589167891,0.6011388592263934
183.0,20.876157246162236,0.4297011521706245,0.011373258809632832,10.856594852575569,0.6011482434530074
184.0,20.87979624239674,0.4298803154844633,0.011368041711484733,10.85610415740862,0.6011576551056201
185.0,20.883434798574186,0.43005949451674824,0.011362826129122573,10.855613503745985,0.6011669681267326
186.0,20.8870729142498,0.43023868920230174,0.011357612063387628,10.855122891666628,0.6011763097024986
187.0,20.890710588978845,0.43041789947592585,0.011352399515124527,10.85463232124953,0.601185842167872
188.0,20.8943478223166,0.430597125272379,0.0113471884851816,10.854141792573687,0.6011957648785685
189.0,20.89798461381838,0.43077636652639906,0.011341978974410711,10.853651305718115,0.6012051676706267
190.0,20.901620963039527,0.43095562317267816,0.011336770982913063,10.85316086076184,0.6012144194721374
191.0,20.905256869535403,0.4311348951459,0.01133156451120947,10.852670457783892,0.6012235670312995
192.0,20.908892332861395,0.4313141823807012,0.011326359533754228,10.85218009686317,0.6012325323523018
193.0,20.912527352572937,0.43149348481169597,0.011321156052715086,10.851689778078596,0.6012412841280415
