k,PSNR,SSIM,mse,Log-Gradient,Angle
0.0,20.203869201506915,0.39727442445618505,0.0,10.94693289378494,0.599031209302794
1.0,20.207015545669982,0.39742161227742595,0.010273583682146594,10.946508905176385,0.5993842829988583
2.0,20.2107022499821,0.39759558125830935,0.01221391637828505,10.946015168106369,0.5993931840341258
3.0,20.214412846433007,0.39777081667769726,0.012324804000574056,10.94551836224189,0.5994020821615414
4.0,20.218125612721533,0.397946207548111,0.012334068996186743,10.945021240912489,0.5994118028797709
5.0,20.221838870653514,0.3981216669675804,0.012333082516497835,10.944524026005983,0.5994226912891911
6.0,20.225552398836754,0.398297183411882,0.012330333104344702,10.944026749962124,0.5994325602583399
7.0,20.229266154577598,0.3984727545743875,0.012327126843711773,10.94352942019464,0.5994421211084597
8.0,20.23298012530266,0.3986483797901978,0.012323730937989661,10.943032039393943,0.5994515377816648
9.0,20.236694306166925,0.39882405881130173,0.012320254123483868,10.942534608739917,0.5994610073200435
10.0,20.240408695687396,0.39899979154879367,0.012316744389719095,10.942037128719697,0.5994703710827269
11.0,20.244123292758175,0.3991755779283237,0.01231320886172088,10.941539599641168,0.5994796753689553
12.0,20.247838096869305,0.3993514179025537,0.012309660121861778,10.941042021737514,0.5994889172012405
13.0,20.251553107427153,0.39952731141208364,0.012306102739436954,10.940544395172143,0.5994982078979476
14.0,20.255268324087496,0.3997032584217628,0.01230253703318179,10.940046720067237,0.5995075234425914
15.0,20.25898374646814,0.3998792588965605,0.01229895970900666,10.939548996572597,0.5995168431665273
16.0,20.262699374228998,0.40005531280254836,0.012295377709466104,10.939051224794943,0.5995261419657133
17.0,20.266415207045657,0.4002314201063271,0.012291794869089347,10.938553404811774,0.5995354502576976
18.0,20.270131244596577,0.4004075807747354,0.012288207174037264,10.938055536712442,0.5995447310340669
19.0,20.273847486562143,0.40058379477476674,0.012284618651198191,10.937557620549487,0.5995539803938615
20.0,20.277563932623973,0.40076006207348364,0.012281030331383629,10.937059656376169,0.599563214376434
21.0,20.281280582464525,0.4009363826379971,0.01227743912761926,10.936561644259582,0.599572520231781
22.0,20.284997435766737,0.401112756435428,0.012273846006677289,10.936063584254692,0.5995817593656074
23.0,20.288714492213803,0.40128918343287406,0.012270252661756504,10.935565476410453,0.5995910549421414
24.0,20.292431751488994,0.40146566359740227,0.012266659559371538,10.93506732077462,0.5996003285041158
25.0,20.296149213275537,0.4016421968960371,0.01226306575095093,10.934569117389561,0.5996095504515804
26.0,20.299866877256516,0.4018187832957489,0.01225947075722179,10.934070866306008,0.5996188670096633
27.0,20.303584743114833,0.401995422763447,0.012255874050957875,10.933572567584772,0.5996283195580787
28.0,20.30730281053313,0.402172115265965,0.012252277176769761,10.93307422127428,0.5996377934505926
29.0,20.311021079193793,0.4023488607700812,0.01224868050484965,10.932575827420376,0.5996472626453201
30.0,20.314739548778846,0.4025256592424958,0.012245082990480652,10.932077386074726,0.5996568080913044
31.0,20.318458218970004,0.4027025106498235,0.012241485294117777,10.931578897285254,0.599666397688526
32.0,20.322177089448598,0.40287941495861723,0.012237887778757917,10.93108036109734,0.5996760086501622
33.0,20.325896159895606,0.4030563721353344,0.012234290170925746,10.930581777558631,0.5996856356226115
34.0,20.329615429991602,0.4032333821463663,0.012230692609910271,10.930083146714757,0.599695216950875
35.0,20.333334899416762,0.4034104449580161,0.012227094629102701,10.929584468610543,0.5997048116521165
36.0,20.337054567850874,0.40358756053650646,0.012223495515055123,10.929085743287086,0.5997144134991358
37.0,20.34077443497328,0.40376472884797526,0.012219895889881044,10.928586970788201,0.5997240109011898
38.0,20.344494500462936,0.40394194985848325,0.012216296401582958,10.928088151159127,0.599733626945131
39.0,20.348214763998357,0.4041192235340039,0.012212697050883648,10.927589284445151,0.5997432038330637
40.0,20.351935225257648,0.4042965498404232,0.01220909783828947,10.927090370691605,0.5997527881394106
41.0,20.355655883918487,0.4044739287435531,0.012205498764124922,10.926591409943871,0.5997624889591117
42.0,20.359376739658135,0.4046513602091107,0.012201899828562311,10.926092402247395,0.5997721602617725
43.0,20.36309779215341,0.4048288442027352,0.012198301031646458,10.925593347647677,0.5997817754547498
44.0,20.36681904108072,0.4050063806899799,0.01219470237331532,10.92509424619028,0.5997913874731463
45.0,20.370540486116017,0.4051839696363136,0.012191103853416702,10.924595097920836,0.5998010274422122
46.0,20.37426212693486,0.40536161100711804,0.01218750547172298,10.924095902885039,0.599810662880479
47.0,20.377983963212326,0.4055393047676949,0.012183907087587985,10.92359666112711,0.5998203567093009
48.0,20.3817059946231,0.4057170508832535,0.012180308770179058,10.923097372692133,0.5998300647255307
49.0,20.385428220841412,0.40589484931892356,0.01217671058695982,10.922598037626019,0.5998397609555862
50.0,20.38915064154105,0.4060727000397477,0.01217311253768554,10.922098655974745,0.5998493985656413
51.0,20.392873256395376,0.4062506030106861,0.012169514622080489,10.921599227784371,0.599859017089477
52.0,20.396596065077325,0.4064285581966074,0.012165916831438472,10.92109975310089,0.599868448893279
53.0,20.400319067259375,0.4066065655622999,0.012162319018275988,10.920600231967992,0.599877790142968
54.0,20.404042262613583,0.4067846250724638,0.012158721335428262,10.92010066443197,0.5998875234425094
55.0,20.407765650811566,0.40696273669171584,0.01215512378268291,10.919601050539198,0.5998971543012486
56.0,20.4114892315245,0.40714090038458783,0.01215152635981763,10.91910139033612,0.5999071428805975
57.0,20.415213004423126,0.40731911611551985,0.012147929066603322,10.918601683869264,0.5999176467611956
58.0,20.41893696917775,0.4074973838488715,0.012144331759672142,10.918101931186104,0.5999276408405085
59.0,20.422661125458234,0.40767570354891447,0.012140734536306739,10.917602132333581,0.5999387665254846
60.0,20.42638547293403,0.4078540751798423,0.012137137442992087,10.917102287358423,0.5999499720647129
61.0,20.430110011274106,0.40803249870575087,0.012133540479641233,10.91660239630744,0.5999601019726121
62.0,20.43383474014704,0.4082109740906517,0.012129943646167896,10.916102459227519,0.5999696618182342
63.0,20.43755965922095,0.40838950129848123,0.012126346942487544,10.915602476165624,0.5999796630611545
64.0,20.441284768163502,0.4085680802930762,0.012122750368518606,10.915102447168806,0.599989655397314
65.0,20.44501006664195,0.40874671103820087,0.01211915392418333,10.914602372284188,0.5999993465420023
66.0,20.44873555432309,0.4089253934975199,0.012115557609408743,10.914102251558976,0.6000088303481913
67.0,20.45246123087328,0.4091041276346208,0.012111961424127403,10.913602085040457,0.600018208312263
68.0,20.45618709595846,0.40928291341299977,0.012108365368277887,10.913101872775997,0.6000273705954331
69.0,20.459913149244095,0.4094617507960738,0.01210476944180552,10.912601614813042,0.6000361492521945
70.0,20.463639390395237,0.40964063974717013,0.012101173644662677,10.912101311199116,0.6000455435528261
71.0,20.46736581907649,0.4098195802295226,0.012097577976809226,10.91160096198183,0.6000561148356938
72.0,20.471092434952027,0.40999857220628977,0.01209398243821289,10.91110056720887,0.6000661102046867
73.0,20.474819237685544,0.4101776156405355,0.012090387028849516,10.910600126928003,0.6000759554114166
74.0,20.478546226940345,0.41035671049524397,0.012086791748703236,10.910099641187081,0.600085544636662
75.0,20.482273402379263,0.41053585673330734,0.012083196597766674,10.909599110034033,0.6000948823941981
76.0,20.486000763664705,0.4107150543175358,0.012079601576041137,10.90909853351687,0.6001039851846907
77.0,20.489728310458624,0.4108943032106515,0.012076006683536646,10.908597911683684,0.600112910548482
78.0,20.49345604242253,0.41107360337529064,0.012072411920272103,10.908097244582649,0.6001215944798546
79.0,20.49718395921751,0.4112529547739938,0.012068817286275265,10.907596532262017,0.6001301915923374
80.0,20.500912060504184,0.4114323573692327,0.012065222781582716,10.907095774770127,0.6001400467004087
81.0,20.504640345942768,0.41161181112337936,0.012061628406240027,10.906594972155395,0.6001500477089906
82.0,20.50836881519298,0.41179131599871893,0.012058034158546692,10.906094124466334,0.6001602909620051
83.0,20.512097467914145,0.41197087195746157,0.012054439984292785,10.905593231751995,0.600170755199962
84.0,20.515826303765117,0.4121504789617172,0.012050845943150867,10.905092294061005,0.6001810623429663
85.0,20.519555322404326,0.4123301369735128,0.012047252035135032,10.904591311442067,0.6001916106874184
86.0,20.523284523489743,0.4125098459547973,0.012043658260263651,10.904090283943972,0.6002025336466968
87.0,20.5270139066789,0.412689605867417,0.01204006461855959,10.903589211615593,0.6002135028474205
88.0,20.530743471628895,0.4128694166731459,0.012036471086172063,10.903088094506156,0.6002243781565898
89.0,20.53447321799637,0.4130492783336624,0.012032877683269041,10.902586932664741,0.600235212243548
90.0,20.538203145437528,0.4132291908105646,0.012029284417080928,10.902085726140431,0.6002460245669127
91.0,20.54193325360813,0.4134091540653606,0.012025691287558022,10.901584474982391,0.6002565396492116
92.0,20.54566354216348,0.41358916805946483,0.01202209826767296,10.90108317924008,0.6002668196916554
93.0,20.54939401075847,0.41376923275421557,0.012018505346050928,10.90058183896313,0.6002769342368746
94.0,20.553124659047512,0.41394934811085776,0.012014912560659782,10.900080454200952,0.6002870728848301
95.0,20.55685548668459,0.4141295140905532,0.012011319911500085,10.89957902500304,0.6002972414371816
96.0,20.560586493323243,0.41430973065437,0.012007727398573299,10.899077551418982,0.6003072965127174
97.0,20.56431767861656,0.4144899977632961,0.012004135021881855,10.898576033498438,0.6003176012467114
98.0,20.56804904221719,0.4146703153782318,0.012000542781429265,10.898074471291164,0.6003280445383614
99.0,20.571780583777333,0.41485068345998716,0.011996950675397067,10.897572864847012,0.6003384581320336
100.0,20.575512302948745,0.41503110196928256,0.011993358703275982,10.897071214215934,0.6003489943761152
101.0,20.579244199382728,0.41521157086676186,0.011989766865192934,10.896569519447958,0.6003597261617456
102.0,20.582976272730154,0.41539209011297035,0.011986175161278595,10.896067780593196,0.6003705434135939
103.0,20.586708522641437,0.41557265966836215,0.011982583591667128,10.895565997701848,0.6003811124047973
104.0,20.590440948766545,0.4157532794933263,0.011978992156496289,10.895064170824194,0.6003913580569032
105.0,20.594173550755002,0.4159339495481425,0.011975400855907157,10.894562300010596,0.6004004534829233
106.0,20.59790632825589,0.41611466979301165,0.011971809690044263,10.894060385311505,0.6004100491202914
107.0,20.60163928091783,0.41629544018804704,0.011968218659055303,10.89355842677745,0.6004199894649723
108.0,20.605372408389012,0.4164762606932743,0.011964627763091085,10.893056424459045,0.600429055892637
109.0,20.609105710317166,0.41665713126863085,0.011961037001756129,10.892554378406992,0.6004383126283095
110.0,20.612839186349593,0.4168380518739679,0.01195744637502105,10.892052288672073,0.6004475934340184
111.0,20.61657283613311,0.4170190224690485,0.01195385588315304,10.891550155305154,0.6004568424172211
112.0,20.620306659314128,0.4172000430135496,0.011950265526420567,10.891047978357186,0.600465930784577
113.0,20.624040655538582,0.41738111346705575,0.011946675305092871,10.890545757879199,0.6004748048088395
114.0,20.627774824451972,0.4175622337890707,0.011943085219439712,10.890043493922308,0.6004834700758676
115.0,20.63150916569935,0.41774340393900317,0.011939495269731037,10.88954118653771,0.6004921505575476
116.0,20.635243678925303,0.41792462387618395,0.011935905456236542,10.889038835776683,0.6005014508914184
117.0,20.638978363773994,0.4181058935598469,0.01193231577922541,10.888536441690588,0.6005111445324111
118.0,20.642713219889114,0.4182872129491421,0.011928726238965884,10.888034004330875,0.600521829844212
119.0,20.646448246913927,0.4184685820031342,0.011925136835725037,10.887531523749065,0.6005334447565033
120.0,20.650183444491226,0.41865000068079533,0.011921547569768352,10.887028999996772,0.6005447988255439
121.0,20.65391881226337,0.41883146894101486,0.011917958441359322,10.886526433125688,0.6005561319189733
122.0,20.65765434987227,0.41901298674259,0.01191436945075932,10.88602382318759,0.6005674022826782
123.0,20.66139005695937,0.4191945540442347,0.011910780595527679,10.885521170234316,0.6005786477393766
124.0,20.665125933165676,0.4193761708045682,0.011907191873496231,10.885018474317793,0.600589586003455
125.0,20.66886197813175,0.4195578369821303,0.011903603284089544,10.884515735490028,0.6006001086672809
126.0,20.672598191497684,0.41973955253536793,0.011900014827696042,10.884012953803115,0.6006102838800423
127.0,20.676334572903148,0.4199213174226421,0.011896426504706544,10.883510129309228,0.6006205611281954
128.0,20.680071121987336,0.4201031316022203,0.011892838315513755,10.883007262060625,0.6006315000359832
129.0,20.683807838389008,0.4202849950322964,0.01188925026051167,10.882504352109647,0.6006416963268418
130.0,20.687544721746455,0.4204669076709573,0.011885662340095238,10.882001399508717,0.6006518712324181
131.0,20.69128177169754,0.42064886947621843,0.011882074554659798,10.881498404310339,0.6006619192067063
132.0,20.69501898787966,0.42083088040599786,0.011878486904600586,10.8809953665671,0.6006718243606467
133.0,20.69875636992977,0.42101294041812953,0.011874899390312372,10.880492286331675,0.6006817873436693
134.0,20.70249391748435,0.42119504947035386,0.011871312012188807,10.879989163656818,0.6006916163692552
135.0,20.706231630179467,0.421377207520335,0.011867724766466766,10.879485998595335,0.6007017879102005
136.0,20.709969507650698,0.42155941452563456,0.01186413765279921,10.878982791200109,0.6007123458152874
137.0,20.713707549533204,0.42174167044373884,0.011860550675408785,10.878479541524127,0.6007234558705872
138.0,20.71744575546166,0.42192397523203634,0.011856963834671417,10.877976249620458,0.6007343345070544
139.0,20.72118412507031,0.42210632884783533,0.011853377130963622,10.877472915542253,0.6007444112698596
140.0,20.72492265799294,0.42228873124835004,0.01184979056255973,10.876969539342737,0.6007544319709234
141.0,20.72866135386289,0.4224711823907113,0.01184620412208594,10.876466121075218,0.6007644107015145
142.0,20.73240021231303,0.422653682231956,0.011842617809940042,10.875962660793077,0.6007747439751273
143.0,20.73613923297579,0.4228362307290401,0.011839031626526102,10.875459158549779,0.6007856317742833
144.0,20.739878415483158,0.4230188278388234,0.011835445572253578,10.874955614398866,0.6007964973862371
145.0,20.743617759466638,0.4232014735180891,0.011831859647536764,10.874452028393963,0.6008073026843238
146.0,20.747357264557316,0.4233841677235171,0.011828273852793957,10.873948400588773,0.6008172833421964
147.0,20.751096930385803,0.42356691041171013,0.011824688188446739,10.873444731037083,0.6008264338903061
148.0,20.75483675658226,0.42374970153918207,0.011821102654919294,10.872941019792753,0.6008360233615688
149.0,20.758576742776388,0.42393254106234995,0.011817517252637626,10.872437266909728,0.6008458841345639
150.0,20.762316888597457,0.42411542893755927,0.011813931980175999,10.871933472442029,0.6008556490050464
151.0,20.766057193674268,0.4242983651210461,0.011810346836325052,10.87142963644375,0.6008654092284427
152.0,20.76979765763516,0.42448134956897343,0.01180676182161567,10.870925758969067,0.600874845683297
153.0,20.77353828010802,0.4246643822374166,0.011803176936582067,10.870421840072236,0.6008842028150436
154.0,20.777279060720314,0.42484746308234617,0.011799592181761017,10.869917879807593,0.6008937059664861
155.0,20.781019999099005,0.42503059205966204,0.011796007557690995,10.86941387822956,0.600903194306095
156.0,20.784761094870635,0.4252137691251783,0.01179242306491143,10.868909835392632,0.6009126589959493
157.0,20.78850234766128,0.4253969942345974,0.0117888387039619,10.868405751351393,0.6009223446772995
158.0,20.792243757096564,0.425580267343558,0.011785254475381311,10.867901626160505,0.6009320277571076
159.0,20.79598532280164,0.42576358840759526,0.011781670379707386,10.86739745987471,0.6009418163111052
160.0,20.799727044401244,0.42594695738216526,0.011778086389392477,10.866893252548783,0.6009519120422322
161.0,20.80346892151962,0.4261303742226296,0.011774502519711167,10.866389004237606,0.6009618804489033
162.0,20.807210953780576,0.4263138388842642,0.011770918781659595,10.86588471499614,0.6009715791479319
163.0,20.810953140807463,0.4264973513222574,0.0117673351507273,10.865380384879362,0.6009809426028931
164.0,20.81469548222316,0.4266809114917041,0.01176375164149905,10.864876013942368,0.6009899176344021
165.0,20.818437977650127,0.42686451934762165,0.011760168265566326,10.864371602240364,0.6009990788151748
166.0,20.82218062671034,0.42704817484492824,0.011756584995845844,10.863867149829105,0.6010081176923358
167.0,20.825923429025327,0.42723187793845624,0.011753001832528741,10.863362656763753,0.6010171159816438
168.0,20.829666384216164,0.42741562858295307,0.01174941879381441,10.862858123099606,0.6010260476102752
169.0,20.83340949190347,0.42759942673307777,0.01174583588611013,10.862353548892168,0.6010353149039079
170.0,20.837152751707407,0.42778327234339386,0.011742253108783404,10.86184893419703,0.6010454899335917
171.0,20.840896163247677,0.4279671653683817,0.01173867046197302,10.861344279069863,0.6010560532807333
172.0,20.844639726143534,0.4281511057624403,0.011735087945547035,10.86083958356642,0.6010673999245093
173.0,20.84838344001378,0.42833509347986665,0.011731505560225418,10.860334847742537,0.6010790492036339
174.0,20.852127304476745,0.428519128474875,0.01172792330672358,10.859830071654132,0.6010889896382211
175.0,20.85587131915032,0.4287032107015975,0.011724341185751821,10.859325255357207,0.6010982523432336
176.0,20.859615483651922,0.42888734011406554,0.01172075919801497,10.858820398907849,0.6011073808016119
177.0,20.863359797598534,0.4290715166662335,0.011717177341914572,10.858315502362263,0.6011164793515268
178.0,20.86710426060666,0.42925574031195773,0.011713595617446402,10.85781056577675,0.6011256312050122
179.0,20.870848872292363,0.42944001100501766,0.011710014022637653,10.857305589207698,0.6011353621492523
180.0,20.87459363227125,0.42962432869909456,0.011706432555096815,10.85680057271158,0.601145010570947
181.0,20.87833854015846,0.42980869334777966,0.011702851168337284,10.856295516345318,0.6011547334682932
182.0,20.88208359556869,0.4299931049045878,0.011699269903398469,10.855790420165606,0.6011643811934874
183.0,20.88582879811616,0.43017756332293544,0.011695688763943122,10.855285284229195,0.6011740082604586
184.0,20.889574147414663,0.43036206855615355,0.011692107750829616,10.854780108592927,0.6011819628463999
185.0,20.893319643077504,0.4305466205574766,0.011688526864919033,10.854274893313722,0.6011939961133822
186.0,20.897065284717552,0.43073121928006786,0.011684946107075342,10.853769638448595,0.6012037207036334
187.0,20.900811071947217,0.43091586467699255,0.011681365478165246,10.853264344054645,0.6012132788068275
188.0,20.90455700437844,0.43110055670121916,0.011677784978299417,10.852759010189047,0.6012227301980138
189.0,20.90830308162273,0.43128529530564624,0.011674204607994567,10.85225363690905,0.6012319981879855
190.0,20.912049303291106,0.43147008044306356,0.011670624355862896,10.851748224271923,0.6012410348425586
191.0,20.915795668994154,0.4316549120661901,0.011667044192773358,10.85124277233464,0.6012505273776062
192.0,20.919542178341995,0.43183979012764245,0.01166346414778499,10.85073728115407,0.6012603516121795
193.0,20.923288830944294,0.43202471457996167,0.011659884235581074,10.850231750787838,0.6012702619004489
