k,PSNR,SSIM,mse,Log-Gradient,Angle
0.0,20.203869201506915,0.39727442445618505,0.0,10.94693289378494,0.599031209302794
1.0,20.20701411127034,0.39742154516823497,0.01026890060813066,10.94650909847923,0.5993842786713475
2.0,20.210697700571203,0.39759536769109166,0.012203727215006222,10.946015779825945,0.5993931716765706
3.0,20.21440349064118,0.39777037669139054,0.012309021296682423,10.945519618909389,0.5994020487631134
4.0,20.218109758414474,0.39794546108095075,0.01231267966822184,10.945023369206869,0.5994117576550663
5.0,20.221814825686128,0.3981205338961851,0.012306088374526205,10.94452725265353,0.5994226321839858
6.0,20.225518471152736,0.3982955835565389,0.012297738838341095,10.944031301721484,0.5994324739612271
7.0,20.229220652229177,0.3984706077001879,0.012288937845803486,10.943535523853235,0.5994420044350554
8.0,20.23292135645768,0.39864560560750717,0.0122799528011286,10.943039921766442,0.5994513875602792
9.0,20.236620579112376,0.3988205769760184,0.012270892552818576,10.942544496667411,0.5994608196423382
10.0,20.240318318831235,0.3989955216625269,0.012261805139716747,10.942049249069267,0.5994701425457306
11.0,20.244014574631247,0.3991704395385933,0.012252697698176584,10.941554179305506,0.5994793999691951
12.0,20.24770934612676,0.39934533050294463,0.012243582830459676,10.94105928763459,0.5994885953154577
13.0,20.251402632850105,0.3995201944424455,0.012234465111856994,10.940564574244931,0.5994978248939425
14.0,20.25509443458441,0.3996950312683463,0.012225344863944956,10.940070039283455,0.5995070837147319
15.0,20.258784751076266,0.3998698408922073,0.01221621877433228,10.939575682924465,0.5995163391481333
16.0,20.262473582115845,0.4000446232268427,0.01220709381085081,10.939081505298867,0.5995255715708117
17.0,20.2661609275104,0.40021937818575654,0.012197973809530067,10.93858750650816,0.5995348064207625
18.0,20.269846787071483,0.4003941056828741,0.012188854740429841,10.938093686665447,0.5995440128758326
19.0,20.273531160614,0.4005688056324141,0.012179740646915762,10.937600045846784,0.599553185116618
20.0,20.277214047955514,0.4007434779488483,0.01217063255602563,10.937106584128736,0.599562335416398
21.0,20.280895448915835,0.4009181225468598,0.012161527360006459,10.936613301601518,0.599571546496023
22.0,20.284575363316698,0.4010927393412909,0.012152426042439251,10.936120198342918,0.5995806956024358
23.0,20.288253790981486,0.40126732824714767,0.012143330293191095,10.935627274424533,0.5995898867012006
24.0,20.29193073173512,0.40144188917955614,0.01213424057724868,10.935134529916542,0.5995990673869165
25.0,20.295606185403866,0.4016164220537682,0.012125155938519549,10.93464196488352,0.599608188367751
26.0,20.299280151815275,0.40179092678514977,0.012116075885312232,10.934149579398227,0.5996173680659398
27.0,20.30295263079814,0.40196540328916336,0.012106999894209889,10.933657373543273,0.5996266797734597
28.0,20.306623622182435,0.4021398514813849,0.012097929521769657,10.933165347388595,0.5996360440170118
29.0,20.31029312579925,0.4023142712774707,0.012088865130312815,10.932673501001364,0.5996453732124996
30.0,20.313961141480796,0.40248866259317956,0.0120798056575103,10.932181834454466,0.5996547854693507
31.0,20.31762766906035,0.40266302534435866,0.012070751781826927,10.931690347816641,0.5996642296337021
32.0,20.32129270837226,0.4028373594469461,0.012061703857996677,10.931199041153954,0.5996736967562716
33.0,20.324956259251902,0.40301166481696965,0.01205266160696925,10.93070791453452,0.5996831763345138
34.0,20.328618321535714,0.40318594137053615,0.012043625167161407,10.930216968024217,0.5996926054867825
35.0,20.332278895061133,0.40336018902384546,0.0120345940526996,10.929726201687878,0.5997020537380142
36.0,20.335937979666635,0.40353440769318194,0.012025567553169662,10.929235615586409,0.5997114919794132
37.0,20.339595575191684,0.40370859729491976,0.012016546308844446,10.928745209783271,0.5997209340607967
38.0,20.343251681476765,0.40388275774551086,0.012007530956418629,10.928254984343091,0.5997303735776888
39.0,20.346906298363365,0.4040568889614929,0.01199852149397767,10.927764939330318,0.5997397967086914
40.0,20.35055942569395,0.4042309908594938,0.011989517919391507,10.927275074809236,0.5997491869252508
41.0,20.354211063312025,0.4044050633562253,0.011980520230349458,10.926785390843964,0.5997586598744361
42.0,20.357861211062065,0.4045791063684821,0.011971528424389885,10.926295887498458,0.5997681883756544
43.0,20.36150986878956,0.4047531198131385,0.011962542498925113,10.925806564836517,0.5997776265517604
44.0,20.365157036340968,0.40492710360716383,0.011953562451261949,10.925317422921784,0.5997870412673235
45.0,20.368802713563774,0.40510105766760535,0.011944588278618695,10.924828461817748,0.5997964684890711
46.0,20.372446900306432,0.405274981911599,0.011935619978139722,10.92433968158775,0.5998058944948604
47.0,20.376089596418396,0.405448876256358,0.011926657403174976,10.923851082293412,0.5998153667991409
48.0,20.37973080175011,0.4056227406191983,0.011917700624206119,10.923362663997043,0.5998248180570106
49.0,20.383370516153004,0.4057965749175024,0.011908749705500817,10.922874426761538,0.599834342025429
50.0,20.387008739479494,0.40597037906874145,0.011899804644193612,10.922386370649647,0.5998437995839624
51.0,20.390645471583,0.40614415299048395,0.011890865437389767,10.921898495723973,0.5998532001263566
52.0,20.3942807123179,0.40631789660037193,0.011881932072135512,10.921410802046811,0.5998625331148719
53.0,20.397914461539607,0.40649160981613836,0.011873004398935462,10.920923289677985,0.5998716657373352
54.0,20.401546719104484,0.4066652925556018,0.011864082569019432,10.92043595867968,0.5998809514561255
55.0,20.405177484869892,0.4068389447366636,0.011855166579563944,10.919948809113937,0.5998903976965543
56.0,20.40880675869419,0.40701256627731874,0.011846256427737416,10.919461841042647,0.5998997483674061
57.0,20.41243454043672,0.4071861570956399,0.011837352110703117,10.91897505452757,0.5999097317536829
58.0,20.41606082995781,0.4073597171097941,0.011828453465414984,10.91848844963128,0.5999198770340182
59.0,20.41968562711878,0.4075332462380283,0.011819560617470453,10.918002026415417,0.5999294735605759
60.0,20.423308931781953,0.40770674439868215,0.011810673596905743,10.917515784941276,0.5999406333461806
61.0,20.42693074381061,0.407880211510174,0.011801792401033302,10.91702972527001,0.5999513933411406
62.0,20.430551063069046,0.4080536474910164,0.011792917027167945,10.916543847462629,0.5999611330911235
63.0,20.434169889422535,0.4082270522598108,0.011784047472628057,10.916058151580003,0.5999703934949763
64.0,20.437787222737338,0.40840042573524254,0.011775183734736759,10.915572637682859,0.599980148565075
65.0,20.441403062880703,0.4085737678360804,0.011766325810822788,10.915087305831777,0.5999898300037767
66.0,20.44501740972087,0.4087470784811896,0.011757473698221497,10.914602156087204,0.599999225447246
67.0,20.448630263127047,0.40892035758951445,0.011748627394275468,10.914117188509437,0.6000084189022725
68.0,20.452241622969467,0.40909360508009457,0.011739786896335156,10.913632403158633,0.6000175087101455
69.0,20.45585148911931,0.40926682087205696,0.011730952201759506,10.913147800094809,0.6000264130572415
70.0,20.45945986144877,0.4094400048846089,0.011722123307916301,10.912663379377836,0.6000349733310889
71.0,20.463066739831014,0.4096131570370584,0.011713300212182587,10.912179141067444,0.6000436655839311
72.0,20.46667212414019,0.4097862772487891,0.011704482911945025,10.911695085223224,0.6000540136685116
73.0,20.470276014251446,0.40995936543928907,0.011695671404600153,10.91121121190462,0.6000637507112557
74.0,20.47387841004092,0.4101324215281182,0.011686865687554612,10.910727521170934,0.6000733036968312
75.0,20.477479311385714,0.41030544543493813,0.011678065758225218,10.910244013081325,0.6000826480661199
76.0,20.481078718163932,0.410478437079491,0.011669271614039287,10.909760687694812,0.6000917312030927
77.0,20.48467663025466,0.4106513963816183,0.011660483252434593,10.90927754507027,0.6001005904346705
78.0,20.48827304753797,0.4108243232612457,0.01165170067085953,10.90879458526643,0.6001092378982683
79.0,20.491867969894912,0.4109972176383801,0.011642923866773073,10.908311808341878,0.6001177458822372
80.0,20.49546139720753,0.4111700794331359,0.011634152837644856,10.907829214355063,0.6001259514424536
81.0,20.49905332935885,0.4113429085656999,0.011625387547751387,10.907346803364572,0.6001348273781767
82.0,20.50264376623288,0.4115157049563665,0.011616627995684008,10.906864575428834,0.6001444815028537
83.0,20.506232707714616,0.4116884685255036,0.011607874214761067,10.906382530605821,0.6001540948442854
84.0,20.509820153690036,0.4118611991935752,0.011599126202436987,10.905900668953368,0.6001641229030846
85.0,20.513406104046105,0.4120338968811463,0.011590383923135163,10.905418990529542,0.6001741171032147
86.0,20.516990558670763,0.4122065615088595,0.011581647397953912,10.904937495391996,0.6001839924080072
87.0,20.520573517452945,0.41237919299745096,0.011572916637552715,10.90445618359809,0.6001942847218349
88.0,20.524154980282567,0.41255179126774927,0.011564191639338132,10.903975055205041,0.6002047849303538
89.0,20.52773494705052,0.4127243562406804,0.011555472400718757,10.903494110269932,0.6002152850391334
90.0,20.53131341764869,0.412896887837249,0.011546758919105187,10.903013348849695,0.60022569612524
91.0,20.534890391969927,0.41306938597856413,0.011538051191910273,10.902532771001125,0.6002360802068344
92.0,20.538465869908087,0.41324185058581103,0.011529349205848019,10.902052376780956,0.6002464212876896
93.0,20.542039851357995,0.41341428158028526,0.011520652912400071,10.901572166246117,0.600256479014696
94.0,20.545612336215456,0.41358667888335915,0.011511962365351548,10.901092139452972,0.6002663138477816
95.0,20.549183324377267,0.4137590424165068,0.011503277562174072,10.900612296457737,0.600275995098275
96.0,20.552752815741208,0.41393137210128855,0.011494598500342129,10.90013263731649,0.600285663786729
97.0,20.556320810206024,0.4141036678593563,0.011485925177332993,10.899653162085166,0.6002953767180746
98.0,20.559887307671453,0.4142759296124579,0.01147725759062688,10.899173870819554,0.6003050224585337
99.0,20.563452308038215,0.4144481572824354,0.011468595737706932,10.898694763575309,0.6003146922176182
100.0,20.567015811208012,0.4146203507912194,0.011459939615172596,10.898215840407941,0.6003246691739158
101.0,20.570577817083514,0.4147925100608338,0.011451289219086528,10.897737101372842,0.6003345944816462
102.0,20.57413832556838,0.41496463501339703,0.01144264454705602,10.897258546525256,0.6003445528213206
103.0,20.57769733656726,0.41513672557112136,0.011434005596693442,10.896780175920284,0.6003547076866161
104.0,20.581254849985765,0.4153087816563113,0.0114253723656164,10.896301989612882,0.6003650026576841
105.0,20.584810865730482,0.41548080319136105,0.011416744851447475,10.89582398765786,0.6003751921682763
106.0,20.588365383709004,0.41565279009876427,0.01140812305181413,10.895346170109882,0.600385148838252
107.0,20.591918403829887,0.4158247423011048,0.011399506964348698,10.894868537023472,0.6003946069140058
108.0,20.59546992600265,0.4159966597210644,0.011390896586688126,10.894391088453004,0.6004030109307822
109.0,20.59901995013783,0.4161685422814116,0.011382291916473984,10.893913824452708,0.6004124484205091
110.0,20.6025684761469,0.41634038990501415,0.011373692951352246,10.89343674507667,0.6004217782485326
111.0,20.606115503942334,0.4165122025148332,0.011365099688379067,10.89295985037883,0.6004303629429305
112.0,20.609661033437582,0.41668398003392504,0.011356512125123236,10.892483140412985,0.600439150391281
113.0,20.613205064547067,0.41685572238543633,0.011347930259344097,10.89200661523278,0.6004479478148764
114.0,20.616747597186187,0.4170274294926113,0.01133935408880344,10.891530274891723,0.6004567157018662
115.0,20.620288631271325,0.4171991012787916,0.01133078361126494,10.891054119443165,0.6004653286306109
116.0,20.623828166719832,0.4173707376674083,0.011322218824493952,10.890578148940314,0.6004737625448564
117.0,20.627366203450052,0.4175423385819907,0.011313659726257107,10.890102363436233,0.6004819785159095
118.0,20.63090274138127,0.41771390394616076,0.011305106314322083,10.889626762983834,0.6004901508770949
119.0,20.63443778043379,0.4178854336836387,0.011296558586457105,10.889151347635883,0.6004987327565036
120.0,20.63797132052885,0.4180569277182397,0.011288016540430735,10.888676117444998,0.600507768328316
121.0,20.641503361588697,0.4182283859738742,0.01127948017401146,10.888201072463653,0.6005173261774431
122.0,20.64503390353654,0.4183998083745411,0.011270949484967428,10.887726212744168,0.6005281446269461
123.0,20.64856294629655,0.41857119484434896,0.011262424471066174,10.88725153833872,0.6005389969966431
124.0,20.652090489793892,0.41874254530749466,0.011253905130074146,10.886777049299338,0.6005496484605205
125.0,20.6556165339547,0.4189138596882617,0.011245391459756608,10.8863027456779,0.6005603336622517
126.0,20.659141078706064,0.419085137911048,0.011236883455611088,10.88582862752613,0.6005709524394911
127.0,20.66266412397607,0.4192563799003384,0.01122838111191995,10.885354694895598,0.6005814913268757
128.0,20.666185669693775,0.41942758558071014,0.011219884426571953,10.884880947837727,0.6005916807463053
129.0,20.66970571578919,0.4195987548768388,0.011211393397458868,10.88440738640379,0.6006015067022233
130.0,20.673224262193305,0.4197698877135059,0.011202908022475176,10.883934010644909,0.6006110611873987
131.0,20.676741308838107,0.41994098401557906,0.011194428299517374,10.883460820612063,0.6006207943074372
132.0,20.68025685565651,0.42011204370802996,0.011185954226483833,10.882987816356074,0.6006299977253996
133.0,20.683770902582438,0.42028306671591625,0.011177485801274083,10.882514997927624,0.6006404612315072
134.0,20.68728344955077,0.42045405296440935,0.011169023021788467,10.882042365377238,0.6006500384600463
135.0,20.69079449649736,0.4206250023787575,0.011160565885927703,10.881569918755297,0.6006595109676013
136.0,20.69430404335902,0.4207959148843267,0.011152114391592442,10.881097658112028,0.6006688185571444
137.0,20.697812090073544,0.4209667904065686,0.011143668533661694,10.880625583497496,0.6006781450028471
138.0,20.7013186365797,0.42113762887102985,0.011135228307560486,10.88015369496159,0.6006874044689086
139.0,20.704823682817207,0.42130843020336445,0.01112679371567727,10.879681992554078,0.6006966784551416
140.0,20.708327228726773,0.42147919432931613,0.011118364755896509,10.879210476324577,0.6007064201455601
141.0,20.71182927425006,0.42164992117473804,0.011109941426103687,10.878739146322552,0.6007164504658818
142.0,20.715329819329696,0.4218206106655637,0.011101523724184626,10.878268002597318,0.6007269600617295
143.0,20.718828863909305,0.42199126272783444,0.011093111648025039,10.877797045198035,0.6007369027864088
144.0,20.722326407933434,0.4221618772876968,0.011084705195509716,10.877326274173717,0.6007462680931638
145.0,20.72582245134764,0.42233245427137955,0.011076304355266683,10.876855689573212,0.600755610852615
146.0,20.72931699409841,0.4225029936052269,0.011067909125188622,10.87638529144522,0.6007649088957575
147.0,20.732810036133227,0.422673495215671,0.01105951950319144,10.875915079838288,0.6007745187532422
148.0,20.73630157740052,0.42284395902923927,0.011051135487195392,10.875445054800808,0.6007846529406281
149.0,20.739791617849704,0.4230143849725736,0.011042757075124532,10.874975216381017,0.6007947637376225
150.0,20.743280157431133,0.4231847729724015,0.011034384264906105,10.874505564627006,0.6008048532017732
151.0,20.746767196096144,0.4233551229555465,0.011026017054469858,10.874036099586705,0.6008144837401154
152.0,20.75025273379703,0.4235254348489474,0.011017655441747395,10.873566821307895,0.6008231227120512
153.0,20.75373677048706,0.42369570857962646,0.01100929942467153,10.873097729838205,0.6008318209077192
154.0,20.757219306120444,0.4238659440747146,0.01100094900117553,10.872628825225107,0.6008408952308891
155.0,20.760700340652388,0.4240361412614377,0.01099260416772496,10.872160107515919,0.6008500772635011
156.0,20.76417987403903,0.42420630006712345,0.010984264920525894,10.871691576757799,0.6008591357092711
157.0,20.76765790623748,0.424376420419202,0.01097593125760644,10.871223232997751,0.6008681372122179
158.0,20.771134437205827,0.42454650224519397,0.010967603176996486,10.87075507628263,0.6008768337082216
159.0,20.7746094669031,0.42471654547272636,0.010959280676727039,10.870287106659138,0.6008855189216186
160.0,20.778082995289303,0.4248865500295287,0.010950963754829705,10.869819324173816,0.6008943057919679
161.0,20.781555022325385,0.4250565158434287,0.010942652409335887,10.869351728873061,0.600903084039024
162.0,20.78502554797328,0.4252264428423464,0.010934346638276256,10.868884320803117,0.6009118001161702
163.0,20.78849457219586,0.4253963309543132,0.010926046404608503,10.868417100010008,0.6009206485745924
164.0,20.791962094956958,0.42556618010745834,0.01091775173419214,10.867950066539661,0.6009296083272796
165.0,20.795428116221387,0.42573599023000414,0.010909462632214708,10.86748322043786,0.600938571780644
166.0,20.798892635954907,0.42590576125029095,0.010901179089243561,10.867016561750216,0.6009477760694591
167.0,20.80235565412423,0.42607549309673565,0.01089290107871223,10.866550090522107,0.6009570801471127
168.0,20.805817170697026,0.42624518569787084,0.010884628628358357,10.866083806798834,0.6009661529470827
169.0,20.809277185641943,0.42641483898232985,0.010876361711136288,10.865617710625905,0.60097498799714
170.0,20.81273569892857,0.4265844528788487,0.010868100340851432,10.86515180204845,0.6009835112767915
171.0,20.81619271052745,0.42675402731625595,0.010859844500215037,10.864686081111007,0.6009917303663056
172.0,20.819648220410095,0.42692356222348643,0.01085159420196149,10.864220547858118,0.6010001797532539
173.0,20.82310222854897,0.4270930575295791,0.010843349452972531,10.863755202334277,0.6010084716337274
174.0,20.826554734917487,0.4272625131636693,0.010835110251344844,10.863290044583826,0.601016600848308
175.0,20.830005739490026,0.4274319290549955,0.01082687659487848,10.862825074650951,0.6010247903925734
176.0,20.833455242241904,0.4276013051328975,0.010818648477770065,10.862360292579707,0.6010332294369357
177.0,20.836903243149415,0.42777064132682346,0.010810425897132945,10.861895698413987,0.6010422523187874
178.0,20.840349742189783,0.4279399375663102,0.010802208850856757,10.861431292197539,0.6010519769728241
179.0,20.843794739341206,0.42810919378100726,0.010793997337121575,10.86096707397395,0.6010617983125496
180.0,20.84723823458283,0.42827840990066673,0.010785791354103498,10.860503043786661,0.6010730584289351
181.0,20.85068022789475,0.4284475858551357,0.010777590899974368,10.860039201678962,0.6010829857632615
182.0,20.854120719258,0.4286167215743604,0.010769395972901673,10.859575547693991,0.6010917694061629
183.0,20.8575597086546,0.4287858169884086,0.010761206571048012,10.85911208187473,0.6011001956449101
184.0,20.860997196067483,0.4289548720274258,0.010753022689760989,10.858648804264062,0.6011085523053524
185.0,20.864433181480567,0.4291238866216793,0.01074484429445398,10.858185714904929,0.6011168639912001
186.0,20.867867664878702,0.429292860701528,0.01073667139091203,10.857722813840095,0.6011251966916088
187.0,20.871300646247683,0.42946179419743835,0.010728503995096226,10.857260101112024,0.6011340697904807
188.0,20.87473212557427,0.42963068703997753,0.010720342102804672,10.856797576763014,0.6011428707362387
189.0,20.878162102846154,0.42979953915981745,0.010712185712337343,10.856335240835213,0.6011517014117161
190.0,20.881590578052002,0.4299683504877317,0.010704034821998937,10.855873093370615,0.6011605101899313
191.0,20.8850175511814,0.43013712095459916,0.010695889430098998,10.855411134411069,0.6011691730266393
192.0,20.8884430222249,0.4303058504913937,0.010687749534951801,10.854949363998271,0.6011777641228983
193.0,20.891866991174,0.43047453902920557,0.010679615134876618,10.854487782173766,0.6011870943502435
