k,PSNR,SSIM,mse,Log-Gradient,Angle
0.0,20.203869201506915,0.39727442445618505,0.0,10.94693289378494,0.599031209302794
1.0,20.207015467750438,0.3974216086319144,0.01027332928791907,10.946508915676995,0.5993842827637793
2.0,20.2107020028151,0.39759556965532433,0.012213362772539808,10.946015201340773,0.599393183362762
3.0,20.214412338066815,0.3977707927701441,0.012323946303672088,10.945518430525542,0.5994020803465799
4.0,20.21812475112317,0.39794616698154806,0.01233290636650467,10.945021356574202,0.5994118004223035
5.0,20.221837563749673,0.3981216053823335,0.012331614921234874,10.944524201382471,0.5994226880766257
6.0,20.22555055451912,0.39829709644331546,0.012328560667220904,10.944026997397195,0.5994325555675873
7.0,20.22926368070397,0.39847263785297454,0.012325049726736717,10.943529752039021,0.5994421147657759
8.0,20.23297692969723,0.39864822894153545,0.012321349314249382,10.943032468005194,0.5994515296142781
9.0,20.23669029662047,0.39882386945611953,0.012317568172330555,10.942535146482395,0.5994609971147563
10.0,20.240403779957358,0.3989995593029554,0.01231375429335848,10.942037787964539,0.5994703586546958
11.0,20.244117378568713,0.3991752984028449,0.012309914803151203,10.94154039276628,0.5994796603881486
12.0,20.247831091911365,0.3993510867035935,0.012306062285338155,10.941042961127557,0.599488899688342
13.0,20.25154491935849,0.39952692414095375,0.012302201309717582,10.94054549321853,0.5994981870616697
14.0,20.255258860532766,0.39970281067493824,0.012298332195356997,10.940047989168118,0.5995074994932227
15.0,20.25897291501891,0.39987874626567255,0.012294451647352728,10.939550449132861,0.5995168157422578
16.0,20.262687082443797,0.40005473087439475,0.012290566609808068,10.939052873226201,0.5995261109310198
17.0,20.26640136245006,0.4002307644628809,0.012286680917511575,10.93855526153236,0.5995354152008029
18.0,20.270115754683214,0.40040684699313883,0.01228279055592943,10.938057614147404,0.5995446919271875
19.0,20.27383025879076,0.4005829784273434,0.012278899553021506,10.937559931130584,0.5995539371172087
20.0,20.277544874421494,0.40075915872774037,0.012275008939572708,10.93706221254186,0.5995631659925938
21.0,20.281259601225074,0.4009353878566293,0.012271115627660477,10.936564458455035,0.5995724671968018
22.0,20.2849744388517,0.40111166577631946,0.012267220585146923,10.936066668931758,0.5995817013723438
23.0,20.288689386951873,0.4012879924491046,0.012263325505228026,10.935568844027678,0.5995909913573532
24.0,20.292404445176228,0.4014643678372596,0.012259430854513614,10.935070983797234,0.5996002598611314
25.0,20.29611961317539,0.40164079190300467,0.012255535684203112,10.934573088289469,0.5996094762869366
26.0,20.299834890599897,0.4018172646085296,0.012251639514528411,10.934075157561795,0.5996187853260457
27.0,20.303550277100143,0.4019937859159431,0.012247741818648405,10.933577191681687,0.5996282302661468
28.0,20.30726577232635,0.4021703557873149,0.01224384414199907,10.933079190704241,0.5996376980865644
29.0,20.310981375928463,0.40234697418463244,0.012239946854523972,10.932581154681953,0.5996471597022136
30.0,20.31469708755619,0.40252364106982563,0.012236048910730341,10.932083083673152,0.5996566971478131
31.0,20.318412906858917,0.4027003564047457,0.012232150972227155,10.931584977732403,0.5996662794519952
32.0,20.322128833485746,0.40287712015118005,0.012228253401741595,10.93108683691173,0.5996758821090649
33.0,20.32584486708543,0.40305393227082303,0.012224355925674885,10.930588661265418,0.5996855017037538
34.0,20.32956100730639,0.40323079272531953,0.012220458683446617,10.930090450845729,0.5996950744281564
35.0,20.33327725379671,0.4034077014762189,0.012216561207583477,10.929592205704115,0.5997046611789285
36.0,20.336993606204103,0.40358465848499625,0.012212662784979697,10.929093925888296,0.5997142539931627
37.0,20.340710064175926,0.4037616637130519,0.012208764038909836,10.928595611448706,0.5997238429882505
38.0,20.34442662735917,0.4039387171217086,0.012204865616942217,10.9280972624372,0.5997334495360562
39.0,20.348143295400444,0.4041158186722147,0.012200967519834986,10.927598878905666,0.5997430181125468
40.0,20.351860067946006,0.4042929683257217,0.012197069748129868,10.927100460906042,0.5997525908964295
41.0,20.355576944641726,0.40447016604332725,0.012193172302186856,10.926602008490304,0.5997622798249481
42.0,20.3592939251331,0.4046474117860262,0.012189275182213822,10.926103521710491,0.5997719434503305
43.0,20.36301100906526,0.4048247055147507,0.01218537838829126,10.925605000618688,0.599781547681523
44.0,20.36672819608295,0.40500204719034644,0.012181481920392683,10.925106445267042,0.5997911486421279
45.0,20.37044548583053,0.40517943677357726,0.012177585778401917,10.924607855707755,0.5998007784883586
46.0,20.374162877951996,0.4053568742251284,0.01217368996212712,10.924109231993096,0.5998104022921528
47.0,20.377880372090942,0.4055343595056115,0.012169794330776121,10.923610574173846,0.5998200846927962
48.0,20.381597967890603,0.40571189257554763,0.012165898953764425,10.923111882301649,0.59982977812672
49.0,20.385315664993804,0.4058894733953833,0.012162003898561194,10.922613156428971,0.5998394646765527
50.0,20.389033463043,0.4060671019254863,0.012158109164958044,10.922114396608338,0.599849092744191
51.0,20.392751361680258,0.40624477812614374,0.012154214752715668,10.92161560289235,0.5998587004003864
52.0,20.396469360547265,0.40642250195755514,0.012150320653076932,10.921116775333536,0.599868127416404
53.0,20.400187459285327,0.40660027337984467,0.012146426718626775,10.92061791398212,0.5998774391048586
54.0,20.403905657535354,0.40677809235306456,0.012142533102291811,10.920119018890922,0.5998871652376104
55.0,20.407623954937893,0.40695595883717034,0.012138639803896687,10.919620090112833,0.5998967866708051
56.0,20.411342351133072,0.40713387279204927,0.012134746823256088,10.919121127700814,0.5999067149298571
57.0,20.415060845760667,0.40731183417750483,0.012130854160178048,10.9186221317079,0.5999172190743601
58.0,20.418779438460064,0.4074898429532556,0.012126961670410231,10.918123102188076,0.5999272281013878
59.0,20.422498128870238,0.40766789907894224,0.012123069452941785,10.917624039194774,0.5999382552248608
60.0,20.426216916629834,0.40784600251413106,0.012119177553547715,10.917124942781214,0.5999494822446739
61.0,20.429935801377063,0.40802415321830116,0.012115285972178669,10.91662581300069,0.5999596397553429
62.0,20.43365478274978,0.4082023511508488,0.012111394708785961,10.916126649906573,0.599969198040181
63.0,20.437373860385435,0.40838059627109374,0.012107503763322897,10.9156274535523,0.5999791480587461
64.0,20.441093033921117,0.40855888853828054,0.012103613135745794,10.915128223991388,0.5999891416893816
65.0,20.44481230299351,0.4087372279115599,0.012099722826014889,10.914628961277426,0.5999988313812238
66.0,20.448531667238925,0.4089156143500127,0.01209583283409543,10.914129665464076,0.6000083052660755
67.0,20.45225112629327,0.4090940478126366,0.012091943159958127,10.913630336605072,0.6000176732095001
68.0,20.455970679792095,0.4092725282583374,0.012088053803579944,10.913130974754228,0.6000268416814399
69.0,20.459690327370552,0.409451055645966,0.012084164764944666,10.912631579965428,0.600035634664684
70.0,20.4634100686634,0.40962962993426516,0.012080276044043263,10.912132152292632,0.6000448576266749
71.0,20.46712990330502,0.40980825108191227,0.012076387640874322,10.911632691789872,0.6000554554712847
72.0,20.47084983092941,0.4099869190474991,0.012072499555444415,10.911133198511257,0.6000654509662612
73.0,20.474569851170173,0.41016563378953824,0.012068611787768206,10.910633672510972,0.6000752927189993
74.0,20.478289963660536,0.4103443952664616,0.012064724337868947,10.910134113843272,0.6000848857661633
75.0,20.48201016803334,0.41052320343661636,0.01206083720577841,10.909634522562492,0.6000942206945963
76.0,20.485730463921033,0.4107020582582775,0.012056950391537187,10.909134898723035,0.600103323228323
77.0,20.489450850955684,0.4108809596896314,0.012053063895194737,10.908635242379388,0.6001122393793088
78.0,20.49317132876898,0.41105990768878375,0.012049177716809401,10.908135553586105,0.6001209337487136
79.0,20.496891896992203,0.4112389022137619,0.01204529185644857,10.907635832397819,0.6001294909716365
80.0,20.50061255525627,0.411417943222518,0.01204140631418864,10.907136078869238,0.6001392294163209
81.0,20.504333303191714,0.41159703067291,0.012037521090114977,10.90663629305514,0.6001492128479845
82.0,20.50805414042866,0.41177616452272775,0.012033636177386677,10.906136475010445,0.6001593846962878
83.0,20.511775066596858,0.41195534472967577,0.012029751531988835,10.905636624790514,0.6001698432654496
84.0,20.51549608132568,0.41213457125137,0.012025867208664309,10.905136742450315,0.6001801377788821
85.0,20.519217184244102,0.4123138440453598,0.012021983207467812,10.904636828044895,0.6001906077625266
86.0,20.522938374980725,0.4124931630691033,0.012018099528458453,10.904136881629375,0.6002014935714419
87.0,20.526659653163748,0.4126725282799814,0.01201421617169985,10.903636903258956,0.6002124482622058
88.0,20.530381018420986,0.4128519396352918,0.012010333106712198,10.90313689298926,0.6002233057092871
89.0,20.534102470379885,0.41303139709225656,0.012006450366844258,10.902636850875604,0.600234104495058
90.0,20.537824008667492,0.41321090060800864,0.01200256795290341,10.90213677697338,0.6002449252898235
91.0,20.541545632910466,0.41339045013960835,0.011998685864881705,10.901636671338053,0.6002554461588626
92.0,20.54526734273508,0.4135700456440355,0.011994804076657423,10.901136534025369,0.600265711752887
93.0,20.548989137767222,0.41374968707817517,0.01199092257505995,10.900636365091254,0.6002758229329087
94.0,20.552711017632408,0.4139293743988471,0.011987041399073809,10.900136164591396,0.6002859201317713
95.0,20.55643298195576,0.41410910756278124,0.01198316054874182,10.899635932581567,0.6002960653958109
96.0,20.560155030361976,0.4142888865266337,0.011979280024107761,10.89913566911762,0.6003061243972511
97.0,20.563877162475425,0.4144687112469753,0.011975399825216552,10.898635374255475,0.6003163362298375
98.0,20.567599377920057,0.41464858168029267,0.01197151995211437,10.898135048051142,0.6003267617652889
99.0,20.57132167631945,0.4148284977830035,0.011967640403199857,10.897634690560718,0.600337146463391
100.0,20.57504405729678,0.415008459511424,0.011963761177827223,10.897134301840394,0.6003476308430142
101.0,20.57876652047485,0.4151884668218088,0.01195988227616599,10.89663388194643,0.6003583066653081
102.0,20.58248906547606,0.41536851967032556,0.011956003698389513,10.89613343093517,0.6003691138086332
103.0,20.58621169192245,0.4155486180130568,0.011952125444674814,10.895632948863026,0.6003796891625974
104.0,20.58993439943564,0.4157287618060086,0.011948247515202622,10.895132435786493,0.600389975302147
105.0,20.593657187636893,0.41590895100510356,0.01194436991015713,10.894631891762142,0.6003992258451313
106.0,20.597380056147063,0.41608918556618674,0.011940492629726001,10.894131316846618,0.6004085738450516
107.0,20.601103004586623,0.41626946544501936,0.011936615674100282,10.893630711096641,0.6004186424828777
108.0,20.60482603257568,0.41644979059727455,0.011932739043474213,10.893130074569013,0.6004276858058818
109.0,20.608549139733917,0.4166301609785646,0.011928862737575641,10.89262940732061,0.6004368949262789
110.0,20.612272325680657,0.416810576544405,0.011924986756330715,10.892128709408388,0.6004461624539146
111.0,20.615995590034828,0.41699103725022524,0.011921111100050216,10.891627980889371,0.6004553895585859
112.0,20.619718932414976,0.4171715430513913,0.011917235769046233,10.891127221820671,0.600464476907465
113.0,20.62344235243924,0.41735209390317696,0.01191336076363188,10.890626432259465,0.6004733766352784
114.0,20.6271658497254,0.41753268976077945,0.011909486084120964,10.89012561226301,0.6004820371646284
115.0,20.630889423890842,0.4177133305793086,0.011905611730827393,10.889624761888635,0.600490676637326
116.0,20.63461307455254,0.4178940163138007,0.011901737704065234,10.88912388119375,0.6004997999840946
117.0,20.638336801327114,0.41807474691920543,0.011897864004147995,10.888622970235835,0.6005094168198178
118.0,20.64206060383077,0.4182555223503967,0.011893990631388515,10.888122029072449,0.6005198067793793
119.0,20.645784481679353,0.41843634256216394,0.011890117586098457,10.887621057761221,0.6005313511964946
120.0,20.649508434488297,0.4186172075092192,0.011886244868588096,10.887120056359864,0.6005427102658459
121.0,20.65323246187267,0.4187981171461888,0.011882372479165947,10.88661902492616,0.6005540006318344
122.0,20.656956563447125,0.418979071427621,0.01187850041813845,10.886117963517968,0.6005652397885782
123.0,20.66068073882596,0.4191600703079826,0.011874628683715718,10.885616872193209,0.600576470731039
124.0,20.664404987623058,0.41934111374166005,0.011870757273500903,10.885115751009872,0.6005874588818557
125.0,20.668129309451935,0.41952220168295523,0.01186688618662946,10.88461460002603,0.6005980315303913
126.0,20.671853703925706,0.41970333408609745,0.011863015423534304,10.884113419299828,0.6006082268919469
127.0,20.67557817065711,0.4198845109052253,0.0118591449846509,10.883612208889488,0.6006184416430013
128.0,20.679302709258486,0.4200657320944014,0.011855274870416611,10.883110968853305,0.6006280187546038
129.0,20.683027319341804,0.42024699760761536,0.011851405081270338,10.88260969924965,0.6006395296873509
130.0,20.686752000518624,0.42042830739875586,0.011847535617651977,10.88210840013697,0.6006496569433196
131.0,20.690476752400137,0.4206096614216454,0.011843666480002063,10.881607071573784,0.600659712375616
132.0,20.694201574597134,0.4207910596300319,0.011839797668761051,10.88110571361869,0.6006696030402005
133.0,20.697926466720027,0.4209725019775656,0.011835929184369168,10.880604326330358,0.6006795233864748
134.0,20.701651428378835,0.42115398841782276,0.011832061027265627,10.880102909767537,0.6006893456466903
135.0,20.7053764591832,0.42133551890430104,0.011828193194726229,10.879601463989026,0.6006993448666428
136.0,20.709101558742372,0.4215170933904148,0.011824325684603872,10.879099989053676,0.6007097884691154
137.0,20.7128267266652,0.4216987118295042,0.011820458502023796,10.878598485020447,0.6007207075045782
138.0,20.71655196256016,0.4218803741748179,0.011816591647407696,10.878096951948368,0.6007317489180263
139.0,20.72027726603535,0.4220620803795292,0.011812725121177592,10.877595389896543,0.6007419286948884
140.0,20.724002636698447,0.42224383039673324,0.011808858923755751,10.877093798924147,0.6007519028159038
141.0,20.72772807415678,0.422425624179443,0.011804993045806882,10.876592179090421,0.6007618591498275
142.0,20.731453578017266,0.4226074616805771,0.011801127487706179,10.87609053045468,0.6007719407262675
143.0,20.735179147886434,0.42278934285299713,0.011797262249902529,10.87558885307631,0.6007827647403344
144.0,20.738904783370455,0.4229712676494724,0.011793397332850475,10.875087147014769,0.6007935890919269
145.0,20.742630484075065,0.423153236022686,0.011789532737009398,10.874585412329587,0.6008043979824055
146.0,20.746356249605657,0.42333524792524596,0.01178566846284293,10.874083649080365,0.6008146758198123
147.0,20.750082079567207,0.42351730330968423,0.011781804510818103,10.873581857326778,0.6008238805120425
148.0,20.753807973564324,0.4236994021284406,0.011777940881404728,10.873080037128572,0.6008332559158219
149.0,20.75753393120122,0.4238815443338871,0.011774077575074543,10.872578188545564,0.6008430508845876
150.0,20.761259952081716,0.4240637298783001,0.011770214591387244,10.872076311637642,0.6008528473523936
151.0,20.764986035809258,0.4242459587138927,0.011766351928230051,10.871574406464758,0.6008625734673315
152.0,20.768712181986885,0.4244282307927836,0.011762489586178697,10.871072473086938,0.6008720693906681
153.0,20.772438390217282,0.42461054606701515,0.011758627565812222,10.87057051156428,0.600881350129915
154.0,20.77616466010271,0.42479290448855345,0.011754765867712538,10.87006852195695,0.600890808287481
155.0,20.779890991245075,0.4249753060092751,0.011750904492463406,10.869566504325197,0.6009002587867964
156.0,20.783617383245865,0.42515775058098404,0.011747043440649684,10.869064458729332,0.6009096744617727
157.0,20.78734383570621,0.4253402381554035,0.011743182712856551,10.868562385229744,0.6009192773770552
158.0,20.791070348226835,0.4255227686841679,0.01173932230966879,10.868060283886896,0.600928912698979
159.0,20.79479692040808,0.42570534211884103,0.011735462231670117,10.867558154761321,0.6009386203059127
160.0,20.79852355184991,0.4258879584109001,0.011731602457468229,10.867055997913589,0.6009485612693208
161.0,20.802250242151892,0.42607061751174086,0.011727742990579807,10.866553813404348,0.6009585711785527
162.0,20.805976990913212,0.4262533193726845,0.011723883847998572,10.866051601294329,0.6009683175683753
163.0,20.809703797732663,0.4264360639449678,0.011720025011587835,10.865549361644279,0.6009777651875435
164.0,20.81343066220866,0.4266188511797487,0.011716166482786606,10.86504709451503,0.6009868314571449
165.0,20.81715758393923,0.4268016810281001,0.011712308279850044,10.864544799967526,0.6009958178140195
166.0,20.82088456252201,0.426984553441022,0.01170845038102913,10.864042478063162,0.6010049223905706
167.0,20.82461159755426,0.42716746836942415,0.011704592782693318,10.863540128863,0.6010138781558105
168.0,20.828338688632833,0.42735042576414983,0.011700735495071581,10.863037752427974,0.601022782614124
169.0,20.832065835354232,0.4275334255759499,0.011696878532785853,10.862535348819286,0.6010318952330783
170.0,20.835793037314527,0.42771646775549793,0.011693021893667681,10.862032918098226,0.601041452445433
171.0,20.839520294109448,0.42789955225338966,0.01168916557831284,10.861530460326152,0.6010520337486303
172.0,20.84324760533431,0.42808267902013625,0.01168530958621756,10.861027975564499,0.6010626198883295
173.0,20.84697497058405,0.4282658480061791,0.011681453918147672,10.860525463874769,0.6010747451865249
174.0,20.850702389453218,0.4284490591618603,0.011677598574864535,10.860022925318544,0.6010852294522578
175.0,20.854429861535984,0.4286323124374633,0.011673743557124739,10.859520359957479,0.6010945995608868
176.0,20.85815738642612,0.42881560778317357,0.011669888865679672,10.859017767853304,0.60110371906475
177.0,20.861884963717028,0.42899894514910925,0.011666034500038761,10.858515149067843,0.6011128022858551
178.0,20.86561259300172,0.4291823244852999,0.011662180459182277,10.858012503663023,0.6011217680255
179.0,20.86934027387281,0.4293657457416968,0.011658326743460613,10.857509831700847,0.6011313370147763
180.0,20.873068005922548,0.4295492088681747,0.01165447334823467,10.857007133243396,0.6011409583925235
181.0,20.876795788742776,0.4297327138145232,0.011650620238701784,10.856504408353098,0.6011506089557244
182.0,20.880523621924976,0.42991626053045695,0.011646767433495084,10.856001657092326,0.6011602443182065
183.0,20.884251505060213,0.43009984896560627,0.011642914947111538,10.85549887952341,0.6011697589808965
184.0,20.887979437739205,0.43028347906952485,0.011639062780452628,10.854996075708758,0.6011794066728817
185.0,20.891707419552247,0.43046715079168435,0.011635210934422728,10.854493245710861,0.6011896431943237
186.0,20.895435450089277,0.4306508640814761,0.011631359409929196,10.853990389592282,0.6011993595860805
187.0,20.899163528939834,0.43083461888821434,0.01162750820788237,10.853487507415661,0.6012089517593354
188.0,20.902891655693093,0.4310184151611259,0.011623657328793632,10.852984599243715,0.6012183983861452
189.0,20.906619829937814,0.4312022528493671,0.011619806772867598,10.85248166513922,0.6012277255441415
190.0,20.910348051262396,0.43138613190200936,0.011615956541032096,10.851978705165033,0.601236802923487
191.0,20.914076319254843,0.43157005226804496,0.011612106585594218,10.851475719383789,0.6012459253190624
192.0,20.917804633502776,0.43175401389638807,0.011608256938996654,10.850972707857771,0.6012556279494735
193.0,20.92153299359344,0.4319380167358722,0.011604407615999587,10.850469670649947,0.6012654432548246
