k,PSNR,SSIM,mse,Log-Gradient,Angle
0.0,20.203869201506915,0.39727442445618505,0.0,10.94693289378494,0.599031209302794
1.0,20.207015240007728,0.39742159797684334,0.010272585746254987,10.946508946368102,0.5993842820766929
2.0,20.210701280419258,0.3975955357432295,0.012211744769606217,10.946015298475062,0.5993931814005542
3.0,20.21441085231008,0.3977707228976568,0.012321439662347276,10.945518630092085,0.5994020750422753
4.0,20.2181222330865,0.3979460484250357,0.01232950871316756,10.94502169459758,0.5994117932401405
5.0,20.221833744422288,0.39812142540411194,0.01232732624646411,10.944524713906848,0.5994226786889129
6.0,20.22554516481431,0.3982968422924733,0.01232338141905274,10.94402772048397,0.5994325418594082
7.0,20.229256451462096,0.39847229676553547,0.012318980465053376,10.943530721766257,0.5994420962305493
8.0,20.23296759168684,0.3986477881405304,0.012314390631228375,10.943033720467401,0.5994515057473428
9.0,20.236678580538786,0.398823316151618,0.012309720678381781,10.94253671779041,0.599460967293398
10.0,20.24038941643048,0.3989988806920775,0.0123050186071479,10.942039714245478,0.5994703223389831
11.0,20.2441000981519,0.39917448166978237,0.01230029154557537,10.94154271016348,0.5994796166139921
12.0,20.247810625089162,0.39935011901963113,0.01229555208088159,10.941045705800548,0.599488848522752
13.0,20.25152099654498,0.3995257926644887,0.012290804784248804,10.940548701343001,0.5994981261801262
14.0,20.25523121207167,0.3997015025514827,0.012286049975628984,10.940051696935894,0.5995074295168247
15.0,20.258941271183822,0.399877248627891,0.012281284357650636,10.939554692751875,0.5995167356227082
16.0,20.262651173438314,0.40005303084210003,0.012276514878858967,10.93905768892046,0.5995260202553615
17.0,20.266360918407965,0.400228849143059,0.012271745374713412,10.938560685541928,0.5995353127746781
18.0,20.27007050566865,0.40040470347996493,0.012266971828561546,10.938063682728382,0.5995445776696992
19.0,20.27377993479838,0.40058059380219574,0.012262198271409301,10.93756668055508,0.5995538106782784
20.0,20.277489205376632,0.4007565200592189,0.012257425733876512,10.937069679097974,0.5995630260203144
21.0,20.281198316983936,0.4009324822005724,0.012252651125180248,10.936572678446838,0.599572312325051
22.0,20.28490726920151,0.40110848017581285,0.012247875416282115,10.93607567867927,0.5995815320037854
23.0,20.288616061611066,0.401284513934513,0.012243100300282255,10.935578679866843,0.599590805593002
24.0,20.292324693794587,0.40146058342622437,0.012238326243981646,10.935081682079902,0.5996000593198124
25.0,20.296033165334247,0.40163668860047386,0.012233552297821608,10.934584685383381,0.5996092596148339
26.0,20.299741475812286,0.4018128294067627,0.012228777980498474,10.934087689850562,0.5996185467939238
27.0,20.303449624810984,0.4019890057945436,0.012224002766209241,10.933590695564769,0.5996279694039353
28.0,20.3071576119126,0.4021652177132315,0.012219228202715808,10.933093702596915,0.5996374194844839
29.0,20.310865436699316,0.4023414651121851,0.012214454659147007,10.9325967110153,0.5996468590377477
30.0,20.31457309875321,0.4025177479407156,0.01220968108765294,10.932099720894051,0.5996563741548958
31.0,20.318280597656248,0.40269406614808206,0.012204908153129282,10.931602732303482,0.5996659340641867
32.0,20.32198793299026,0.4028704196834816,0.01220013621742638,10.93110574531136,0.599675512652929
33.0,20.325695104336916,0.40304680849605373,0.012195365006495892,10.93060875998769,0.599685110479042
34.0,20.329402111277727,0.40322323253488374,0.01219059466005159,10.930111776400436,0.5996946580453693
35.0,20.333108953394014,0.40339969174899837,0.012185824708002592,10.92961479461672,0.5997042216434298
36.0,20.336815630266933,0.40357618608735507,0.012181054438155928,10.929117814699925,0.5997137880643655
37.0,20.34052214147744,0.403752715498865,0.01217628447709369,10.928620836716126,0.5997233527276863
38.0,20.344228486606298,0.4039292799323646,0.012171515471025927,10.928123860732795,0.5997329316765666
39.0,20.347934665234085,0.40410587933663916,0.012166747420725668,10.927626886817418,0.5997424754923237
40.0,20.351640676941173,0.4042825136604007,0.012161980326749505,10.927129915037506,0.599752014949951
41.0,20.35534652130774,0.40445918285231247,0.012157214189472559,10.926632945460591,0.5997616692398228
42.0,20.359052197913773,0.40463588686097,0.012152449009117917,10.92613597815424,0.5997713107354431
43.0,20.362757706339046,0.4048126256349039,0.012147684785781512,10.925639013186055,0.5997808831395234
44.0,20.366463046163137,0.4049893991225872,0.012142921519452515,10.925142050623666,0.5997904519616023
45.0,20.370168216965425,0.4051662072724305,0.012138159210030516,10.924645090534748,0.5998000513387118
46.0,20.37387321832508,0.4053430500327789,0.012133397857339684,10.924148132987014,0.59980964108055
47.0,20.377578049821082,0.40551992735191683,0.012128637320071228,10.923651178046669,0.5998192902378832
48.0,20.381282711032178,0.4056968391780689,0.012123877668278162,10.923154225780765,0.5998289413233698
49.0,20.384987201536934,0.4058737854593943,0.01211911896935643,10.922657276257144,0.5998386000813939
50.0,20.388691520913696,0.40605076614399227,0.012114361223114661,10.922160329543699,0.599848201714028
51.0,20.392395668740622,0.4062277811798924,0.01210960442933085,10.921663385708364,0.5998577745972343
52.0,20.396099644595648,0.40640483051507764,0.012104848579009037,10.921166444818983,0.5998671882784316
53.0,20.39980344805651,0.4065819140974541,0.012100093524845288,10.920669506941074,0.5998764255107137
54.0,20.403507078700752,0.40675903187487156,0.012095339419944368,10.920172572142734,0.5998861199730906
55.0,20.407210536105698,0.4069361837951188,0.012090586264149291,10.919675640492104,0.5998957118825802
56.0,20.410913819848474,0.40711336980591417,0.012085834057293476,10.91917871205737,0.5999054619429413
57.0,20.41461692950601,0.4072905898549284,0.012081082799203774,10.918681786906776,0.5999159669047122
58.0,20.418319864655015,0.4074678438897625,0.012076332342949412,10.918184865109504,0.5999260154462035
59.0,20.42202262487202,0.40764513185794976,0.012071582792424295,10.917687946734132,0.5999367620597392
60.0,20.425725209733354,0.4078224537069684,0.01206683419123539,10.917191031849022,0.5999480366669089
61.0,20.42942761881512,0.4079998093842388,0.012062086539353227,10.916694120522582,0.5999582833131254
62.0,20.43312985169323,0.4081771988371075,0.012057339836749408,10.916197212823276,0.599967844784385
63.0,20.436831907943418,0.4083546220128684,0.012052594083397612,10.915700308819613,0.5999776403424245
64.0,20.440533787141185,0.4085320788587521,0.012047849279274788,10.915203408580158,0.5999876375523824
65.0,20.444235488861842,0.4087095693219254,0.012043105424362249,10.914706512173524,0.5999973229811568
66.0,20.447937012680505,0.40888709334949674,0.012038362518646378,10.914209619668377,0.6000067724966225
67.0,20.45163835817209,0.40906465088851074,0.01203362056211942,10.913712731133431,0.6000161082534964
68.0,20.455339524911288,0.40924224188595076,0.012028879554780093,10.913215846637454,0.6000252947118411
69.0,20.45904051247263,0.4094198662887374,0.012024139496634157,10.912718966249265,0.6000341188714521
70.0,20.462741320430418,0.40959752404373023,0.012019400387694914,10.912222090037732,0.6000428414030271
71.0,20.466441948358764,0.40977521509772963,0.012014662227983463,10.911725218071778,0.6000535171301726
72.0,20.47014239583158,0.40995293939747596,0.012009925017529167,10.911228350420371,0.6000635404702277
73.0,20.473842662422584,0.4101306968896414,0.012005188756369843,10.910731487152539,0.6000733545734234
74.0,20.477542747705293,0.4103084875208396,0.012000453444552014,10.910234628337355,0.6000829550347305
75.0,20.481242651253012,0.4104863112376325,0.01199571908213113,10.909737774043943,0.6000922859140178
76.0,20.484942372638876,0.41066416798650707,0.011990985669171577,10.90924092434148,0.6001013848082174
77.0,20.488641911435796,0.410842057713895,0.011986253205747009,10.908744079299197,0.6001102739120953
78.0,20.492341267216496,0.411019980366172,0.01198152169194021,10.908247238986371,0.6001189946847504
79.0,20.496040439553504,0.4111979358896442,0.011976791127843205,10.907750403472331,0.6001274433314612
80.0,20.499739428019158,0.4113759242305602,0.011972061513557314,10.907253572826463,0.6001368471311523
81.0,20.50343823218558,0.411553945335112,0.0119673328491932,10.906756747118195,0.6001467894733595
82.0,20.507136851624708,0.4117319991494219,0.011962605112748959,10.906259926417201,0.6001567749898317
83.0,20.510835285908303,0.4119100856195624,0.011957878290005705,10.905763110793323,0.6001671776097467
84.0,20.514533534607885,0.41208820469153545,0.011953152421161902,10.905266300316105,0.6001774401394605
85.0,20.518231597294818,0.41226635631129516,0.011948427506299342,10.904769495055149,0.6001877216784491
86.0,20.52192947354026,0.4124445404247137,0.01194370354550454,10.904272695080104,0.6001984861638959
87.0,20.525627162915168,0.41262275697762574,0.011938980520655819,10.903775900460886,0.6002093692950659
88.0,20.529324664990305,0.4128010059157903,0.011934258436310257,10.903279111267404,0.6002201792878675
89.0,20.53302197933625,0.41297928718491667,0.011929537309879704,10.902782327569426,0.6002309263306222
90.0,20.53671910552338,0.4131576007306427,0.01192481714138503,10.902285549436773,0.6002416929952609
91.0,20.54041604312188,0.41333594649855526,0.011920097930847876,10.901788776939314,0.6002522319298846
92.0,20.544112791701746,0.4135143244341765,0.011915379654714835,10.901292010147163,0.6002624702123521
93.0,20.54780935083277,0.4136927344829719,0.011910662294446357,10.900795249130617,0.6002725803071319
94.0,20.551505720084574,0.41387117659033773,0.011905945891920925,10.900298493959705,0.6002825572826903
95.0,20.555201899026564,0.4140496507016295,0.011901230447212243,10.8998017447045,0.6002926463962664
96.0,20.55889788722796,0.41422815676211866,0.011896515960395487,10.89930500143514,0.6003026908964971
97.0,20.562593684257806,0.41440669471703345,0.011891802431547204,10.898808264221804,0.6003126329539389
98.0,20.566289289684935,0.41458526451154193,0.011887089860745397,10.898311533134732,0.6003230180080558
99.0,20.569984703077996,0.4147638660907393,0.01188237824693891,10.897814808244227,0.600333336246245
100.0,20.573679924005454,0.4149424993996766,0.01187766758898205,10.897318089620658,0.6003436704637082
101.0,20.577374952035576,0.4151211643833357,0.011872957887076045,10.896821377334444,0.6003542171885391
102.0,20.58106978673644,0.41529986098664273,0.011868249141426156,10.896324671456057,0.6003649166306176
103.0,20.584764427675935,0.4154785891544663,0.011863541352241599,10.895827972056022,0.6003755095108393
104.0,20.588458874421764,0.415657348831604,0.011858834519735519,10.895331279204909,0.6003858600599864
105.0,20.592153126541426,0.41583613996280877,0.011854128644124957,10.894834592973345,0.6003956016209936
106.0,20.59584718360226,0.4160149624927665,0.011849423725630448,10.894337913432004,0.6004044338734223
107.0,20.59954104517139,0.41619381636610914,0.011844719764476352,10.893841240651613,0.6004143545554782
108.0,20.603234710815762,0.4163727015274028,0.011840016760890413,10.893344574702946,0.6004237398509735
109.0,20.606928180102134,0.4165516179211593,0.01183531471487262,10.892847915656834,0.6004327903260608
110.0,20.610621452597076,0.41673056549182924,0.011830613626120442,10.892351263584155,0.6004419679750882
111.0,20.614314527866966,0.4169095441838029,0.011825913494978269,10.89185461855584,0.6004511364717477
112.0,20.618007405478018,0.41708855394141486,0.011821214321792149,10.891357980642866,0.6004602357788621
113.0,20.62170008499622,0.4172675947089403,0.011816516106909451,10.890861349916262,0.6004691721365518
114.0,20.6253925659874,0.41744666643059264,0.011811818850678476,10.890364726447107,0.6004778270458065
115.0,20.629084848017207,0.41762576905053556,0.011807122553448134,10.889868110306525,0.6004863662642933
116.0,20.632776930651083,0.4178049025128608,0.011802427215567565,10.889371501565693,0.6004950437487465
117.0,20.63646881345429,0.41798406676160704,0.011797732837385862,10.888874900295834,0.6005044638886387
118.0,20.64016049599193,0.41816326174076296,0.011793039419251637,10.888378306568221,0.6005140850616847
119.0,20.643851977828874,0.41834248739424656,0.011788346961512734,10.887881720454178,0.6005251706435568
120.0,20.647543258529847,0.4185217436659225,0.011783655464515888,10.887385142025074,0.6005366053854307
121.0,20.651234337659382,0.4187010304995978,0.011778964928606406,10.88688857135233,0.6005477867244741
122.0,20.65492521478182,0.418880347839022,0.011774275354127853,10.886392008507412,0.6005589810571533
123.0,20.658615889461323,0.41905969562788226,0.011769586741101895,10.885895453561837,0.6005701071915314
124.0,20.66230636126187,0.41923907380981235,0.011764899086364305,10.885398906587145,0.6005811798883053
125.0,20.665996629747248,0.41941848232838536,0.011760212388111098,10.884902367654936,0.6005918833438861
126.0,20.669686694481094,0.4195979211271205,0.011755526646810186,10.884405836836859,0.6006021844530407
127.0,20.67337655502682,0.41977739014947146,0.011750841862932196,10.883909314204606,0.6006121967130881
128.0,20.677066210947686,0.41995688933883835,0.011746158036950024,10.883412799829923,0.6006223694797493
129.0,20.68075566180676,0.42013641863856394,0.01174147516933845,10.8829162937846,0.6006337496259287
130.0,20.68444490716693,0.4203159779919397,0.011736793260573515,10.882419796140473,0.6006431927465189
131.0,20.688133946590902,0.4204955673421857,0.011732112311132123,10.881923306969432,0.6006532345875342
132.0,20.691822779641207,0.4206751866324736,0.01172743232149162,10.881426826343406,0.600663129402972
133.0,20.695511405880186,0.42085483580591854,0.011722753292129195,10.880930354334378,0.6006729061469039
134.0,20.69919982487002,0.42103451480556964,0.011718075223521614,10.880433891014379,0.6006827265378528
135.0,20.702888036172684,0.42121422357442784,0.011713398115765824,10.879937436455478,0.6006924147764504
136.0,20.70657603935,0.4213939620554377,0.011708721961593789,10.879440990729744,0.6007024971410055
137.0,20.710263833963594,0.42157373019147676,0.011704046768556919,10.878944553909333,0.6007129289379477
138.0,20.713951419574915,0.4217535279253745,0.011699372537113907,10.878448126066449,0.6007239086067734
139.0,20.71763879574524,0.42193335519989694,0.011694699267724385,10.877951707273333,0.600734610851585
140.0,20.721325962035685,0.42211321195775797,0.011690026960848266,10.877455297602284,0.6007445377715945
141.0,20.725012918007145,0.42229309814161553,0.011685355613592336,10.87695889712563,0.600754418704426
142.0,20.728699663220382,0.42247301369406687,0.011680685220043894,10.876462505915752,0.6007642541723759
143.0,20.732386197235954,0.4226529585576512,0.011676015780686437,10.875966124045062,0.6007744088830228
144.0,20.73607251961426,0.4228329326748573,0.011671347296009405,10.875469751586026,0.6007851364083177
145.0,20.739758629915507,0.42301293598811274,0.011666679766507423,10.874973388611146,0.6007958419342335
146.0,20.74344452769974,0.4231929684397911,0.011662013192679522,10.874477035192973,0.6008065039384806
147.0,20.747130212526827,0.4233730299722081,0.011657347575028723,10.873980691404098,0.600816449820366
148.0,20.75081568395646,0.423553120527621,0.011652682914061015,10.873484357317158,0.6008254799809408
149.0,20.754500941548155,0.42373324004823526,0.01164801921028473,10.872988033004832,0.6008348555612711
150.0,20.75818598486125,0.4239133884761979,0.011643356464209866,10.872491718539843,0.6008445568624824
151.0,20.761870813454916,0.4240935657535984,0.011638694674668819,10.871995413994952,0.6008542157715749
152.0,20.765555426888152,0.4242737718224748,0.011634033840422277,10.871499119442959,0.6008638333960721
153.0,20.76923982471978,0.4244540066248032,0.01162937396208326,10.871002834956709,0.6008731820767995
154.0,20.772924006508443,0.4246342701025059,0.011624715040267639,10.870506560609087,0.6008823489886873
155.0,20.776607971812627,0.42481456219745617,0.011620057075593758,10.870010296473025,0.6008917119825948
156.0,20.780291720190647,0.4249948828514612,0.011615400068681425,10.869514042621494,0.6009010491027352
157.0,20.78397525120063,0.42517523200627777,0.011610744020151224,10.869017799127517,0.6009103450591747
158.0,20.787658564400537,0.4253556096036093,0.011606088930623839,10.868521566064153,0.6009198286395907
159.0,20.79134165934817,0.42553601558509513,0.011601434800719153,10.868025343504508,0.6009293527926846
160.0,20.795024535601144,0.4257164498923305,0.011596781627167806,10.867529131521723,0.6009389367875334
161.0,20.79870719271693,0.42589691246685035,0.011592129377219856,10.867032930188929,0.6009487684653958
162.0,20.8023896302528,0.4260774032501316,0.011587478088210437,10.866536739579358,0.6009586521966123
163.0,20.80607184776587,0.42625792218359465,0.011582827758484618,10.866040559766263,0.6009682779988313
164.0,20.80975384481309,0.42643846920861345,0.011578178353352642,10.86554439082285,0.6009776127629517
165.0,20.81343562095125,0.4266190442665034,0.011573529907794478,10.865048232822458,0.6009865748558189
166.0,20.817117175736954,0.4267996472985178,0.011568882416812937,10.86455208583858,0.6009954290257643
167.0,20.820798508726647,0.4269802782458669,0.011564235861345296,10.864055949945069,0.6010044324559513
168.0,20.824479619476612,0.427160937049698,0.011559590239324093,10.863559825215031,0.6010132498039666
169.0,20.82816050754296,0.4273416236511036,0.011554945575519162,10.863063711721898,0.6010220388123201
170.0,20.831841172481646,0.42752233799112843,0.011550301872660415,10.862567609539187,0.6010309990580047
171.0,20.83552161384844,0.4277030800107598,0.011545659128579803,10.862071518740477,0.601040279416636
172.0,20.839201831198963,0.42788384965092313,0.01154101734371754,10.861575439399383,0.6010507629378686
173.0,20.84288182408866,0.4280646468524946,0.011536376517801388,10.861079371589566,0.6010611653194492
174.0,20.846561592072824,0.4282454715563067,0.01153173665162754,10.86058331538473,0.6010730562966584
175.0,20.85024113470657,0.428426323703121,0.011527097745987895,10.860087270858621,0.6010836647682166
176.0,20.85392045154486,0.42860720323365453,0.011522459801669662,10.85959123808503,0.6010930089754948
177.0,20.857599542142488,0.42878811008856726,0.011517822819454829,10.859095217137796,0.6011020238281284
178.0,20.861278406054083,0.42896904420846593,0.011513186798998536,10.858599208090816,0.6011109867823562
179.0,20.86495704283412,0.429150005533905,0.011508551739229215,10.858103211018062,0.6011198631007632
180.0,20.86863545203691,0.42933099400538755,0.011503917640947424,10.857607225993549,0.6011291272827572
181.0,20.872313633216578,0.4295120095633463,0.011499284497673894,10.857111253091356,0.6011386309066055
182.0,20.875991585927135,0.42969305214818715,0.011494652262638863,10.856615292385976,0.6011481208987889
183.0,20.87966930972239,0.4298741217002422,0.011490020981581204,10.856119343951587,0.6011576402473673
184.0,20.883346804156012,0.43005521815979764,0.01148539065542768,10.85562340786241,0.6011670620309035
185.0,20.8870240687815,0.4302363414670865,0.011480761285108334,10.855127484192716,0.6011765350523279
186.0,20.890701103152196,0.430417491562289,0.011476132871556416,10.854631573016817,0.6011863208554701
187.0,20.894377906821294,0.43059866838553035,0.011471505415708615,10.85413567440908,0.6011961802930675
188.0,20.89805447934181,0.4307798718768805,0.011466878918505037,10.853639788443907,0.6012056846507391
189.0,20.901730820266625,0.43096110197636056,0.01146225338042238,10.853143915195746,0.6012150352225875
190.0,20.905406929148434,0.43114235862393735,0.011457628801771393,10.85264805473908,0.6012242771974755
191.0,20.909082805539803,0.4313236417595263,0.011453005175610948,10.852152207148386,0.6012333248339835
192.0,20.91275844899313,0.4315049513229876,0.01144838246791441,10.85165637249798,0.601242161581272
193.0,20.916433859060653,0.43168628725413116,0.011443760711306317,10.851160550861984,0.6012515581830696
